X,Bin ECG
6/11/19 15:59,501
6/11/19 15:59,501
6/11/19 15:59,527
6/11/19 15:59,582
6/11/19 15:59,503
6/11/19 15:59,488
6/11/19 15:59,495
6/11/19 15:59,486
6/11/19 15:59,502
6/11/19 15:59,491
6/11/19 15:59,482
6/11/19 15:59,480
6/11/19 15:59,471
6/11/19 15:59,473
6/11/19 15:59,481
6/11/19 15:59,487
6/11/19 15:59,490
6/11/19 15:59,494
6/11/19 15:59,497
6/11/19 15:59,500
6/11/19 15:59,503
6/11/19 15:59,506
6/11/19 15:59,510
6/11/19 15:59,514
6/11/19 15:59,517
6/11/19 15:59,520
6/11/19 15:59,523
6/11/19 15:59,522
6/11/19 15:59,523
6/11/19 15:59,521
6/11/19 15:59,520
6/11/19 15:59,517
6/11/19 15:59,516
6/11/19 15:59,513
6/11/19 15:59,512
6/11/19 15:59,508
6/11/19 15:59,508
6/11/19 15:59,508
6/11/19 15:59,506
6/11/19 15:59,506
6/11/19 15:59,505
6/11/19 15:59,504
6/11/19 15:59,504
6/11/19 15:59,500
6/11/19 15:59,502
6/11/19 15:59,500
6/11/19 15:59,500
6/11/19 15:59,499
6/11/19 15:59,500
6/11/19 15:59,501
6/11/19 15:59,499
6/11/19 15:59,500
6/11/19 15:59,500
6/11/19 15:59,500
6/11/19 15:59,502
6/11/19 15:59,502
6/11/19 15:59,502
6/11/19 15:59,503
6/11/19 15:59,502
6/11/19 15:59,503
6/11/19 15:59,502
6/11/19 15:59,503
6/11/19 15:59,503
6/11/19 15:59,504
6/11/19 15:59,503
6/11/19 15:59,503
6/11/19 15:59,504
6/11/19 15:59,504
6/11/19 15:59,524
6/11/19 15:59,580
6/11/19 15:59,508
6/11/19 15:59,491
6/11/19 15:59,497
6/11/19 15:59,487
6/11/19 15:59,503
6/11/19 15:59,498
6/11/19 15:59,488
6/11/19 15:59,474
6/11/19 15:59,472
6/11/19 15:59,478
6/11/19 15:59,480
6/11/19 15:59,487
6/11/19 15:59,488
6/11/19 15:59,492
6/11/19 15:59,496
6/11/19 15:59,498
6/11/19 15:59,503
6/11/19 15:59,507
6/11/19 15:59,513
6/11/19 15:59,516
6/11/19 15:59,519
6/11/19 15:59,522
6/11/19 15:59,521
6/11/19 15:59,521
6/11/19 15:59,524
6/11/19 15:59,521
6/11/19 15:59,518
6/11/19 15:59,518
6/11/19 15:59,516
6/11/19 15:59,517
6/11/19 15:59,511
6/11/19 15:59,510
6/11/19 15:59,507
6/11/19 15:59,505
6/11/19 15:59,506
6/11/19 15:59,505
6/11/19 15:59,504
6/11/19 15:59,505
6/11/19 15:59,504
6/11/19 15:59,503
6/11/19 15:59,499
6/11/19 15:59,503
6/11/19 15:59,499
6/11/19 15:59,501
6/11/19 15:59,499
6/11/19 15:59,500
6/11/19 15:59,501
6/11/19 15:59,500
6/11/19 15:59,499
6/11/19 15:59,501
6/11/19 15:59,501
6/11/19 15:59,502
6/11/19 15:59,501
6/11/19 15:59,501
6/11/19 15:59,502
6/11/19 15:59,503
6/11/19 15:59,502
6/11/19 15:59,504
6/11/19 15:59,504
6/11/19 15:59,504
6/11/19 15:59,504
6/11/19 15:59,504
6/11/19 15:59,503
6/11/19 15:59,506
6/11/19 15:59,522
6/11/19 15:59,583
6/11/19 15:59,509
6/11/19 15:59,483
6/11/19 15:59,503
6/11/19 15:59,504
6/11/19 15:59,492
6/11/19 15:59,479
6/11/19 15:59,490
6/11/19 15:59,479
6/11/19 15:59,476
6/11/19 15:59,480
6/11/19 15:59,483
6/11/19 15:59,488
6/11/19 15:59,490
6/11/19 15:59,491
6/11/19 15:59,495
6/11/19 15:59,498
6/11/19 15:59,502
6/11/19 15:59,507
6/11/19 15:59,510
6/11/19 15:59,513
6/11/19 15:59,518
6/11/19 15:59,519
6/11/19 15:59,520
6/11/19 15:59,520
6/11/19 15:59,522
6/11/19 15:59,521
6/11/19 15:59,518
6/11/19 15:59,517
6/11/19 15:59,515
6/11/19 15:59,515
6/11/19 15:59,512
6/11/19 15:59,511
6/11/19 15:59,508
6/11/19 15:59,509
6/11/19 15:59,506
6/11/19 15:59,506
6/11/19 15:59,504
6/11/19 15:59,505
6/11/19 15:59,502
6/11/19 15:59,500
6/11/19 15:59,502
6/11/19 15:59,501
6/11/19 15:59,501
6/11/19 15:59,500
6/11/19 15:59,500
6/11/19 15:59,500
6/11/19 15:59,500
6/11/19 15:59,502
6/11/19 15:59,501
6/11/19 15:59,498
6/11/19 15:59,502
6/11/19 15:59,500
6/11/19 15:59,503
6/11/19 15:59,502
6/11/19 15:59,501
6/11/19 15:59,504
6/11/19 15:59,503
6/11/19 15:59,503
6/11/19 15:59,504
6/11/19 15:59,504
6/11/19 15:59,503
6/11/19 15:59,504
6/11/19 15:59,506
6/11/19 15:59,525
6/11/19 15:59,580
6/11/19 15:59,507
6/11/19 15:59,489
6/11/19 15:59,498
6/11/19 15:59,489
6/11/19 15:59,490
6/11/19 15:59,493
6/11/19 15:59,488
6/11/19 15:59,493
6/11/19 15:59,482
6/11/19 15:59,477
6/11/19 15:59,479
6/11/19 15:59,481
6/11/19 15:59,487
6/11/19 15:59,490
6/11/19 15:59,492
6/11/19 15:59,496
6/11/19 15:59,499
6/11/19 15:59,504
6/11/19 15:59,508
6/11/19 15:59,514
6/11/19 15:59,517
6/11/19 15:59,520
6/11/19 15:59,524
6/11/19 15:59,524
6/11/19 15:59,524
6/11/19 15:59,524
6/11/19 15:59,522
6/11/19 15:59,520
6/11/19 15:59,516
6/11/19 15:59,517
6/11/19 15:59,513
6/11/19 15:59,510
6/11/19 15:59,508
6/11/19 15:59,508
6/11/19 15:59,505
6/11/19 15:59,506
6/11/19 15:59,505
6/11/19 15:59,504
6/11/19 15:59,505
6/11/19 15:59,502
6/11/19 15:59,500
6/11/19 15:59,499
6/11/19 15:59,499
6/11/19 15:59,498
6/11/19 15:59,500
6/11/19 15:59,499
6/11/19 15:59,500
6/11/19 15:59,499
6/11/19 15:59,499
6/11/19 15:59,501
6/11/19 15:59,499
6/11/19 15:59,499
6/11/19 15:59,501
6/11/19 15:59,501
6/11/19 15:59,503
6/11/19 15:59,501
6/11/19 15:59,503
6/11/19 15:59,504
6/11/19 15:59,501
6/11/19 15:59,505
6/11/19 15:59,502
6/11/19 15:59,506
6/11/19 15:59,504
6/11/19 15:59,503
6/11/19 15:59,504
6/11/19 15:59,503
6/11/19 15:59,555
6/11/19 15:59,590
6/11/19 15:59,494
6/11/19 15:59,492
6/11/19 15:59,494
6/11/19 15:59,503
6/11/19 15:59,485
6/11/19 15:59,490
6/11/19 15:59,485
6/11/19 15:59,479
6/11/19 15:59,479
6/11/19 15:59,480
6/11/19 15:59,483
6/11/19 15:59,486
6/11/19 15:59,488
6/11/19 15:59,491
6/11/19 15:59,492
6/11/19 15:59,495
6/11/19 15:59,502
6/11/19 15:59,506
6/11/19 15:59,508
6/11/19 15:59,515
6/11/19 15:59,518
6/11/19 15:59,521
6/11/19 15:59,522
6/11/19 15:59,523
6/11/19 15:59,522
6/11/19 15:59,521
6/11/19 15:59,521
6/11/19 15:59,517
6/11/19 15:59,517
6/11/19 15:59,515
6/11/19 15:59,511
6/11/19 15:59,509
6/11/19 15:59,506
6/11/19 15:59,508
6/11/19 15:59,506
6/11/19 15:59,506
6/11/19 15:59,506
6/11/19 15:59,503
6/11/19 15:59,502
6/11/19 15:59,501
6/11/19 15:59,499
6/11/19 15:59,501
6/11/19 15:59,501
6/11/19 15:59,500
6/11/19 15:59,500
6/11/19 15:59,500
6/11/19 15:59,500
6/11/19 15:59,500
6/11/19 15:59,501
6/11/19 15:59,501
6/11/19 15:59,501
6/11/19 15:59,502
6/11/19 15:59,502
6/11/19 15:59,502
6/11/19 15:59,502
6/11/19 15:59,504
6/11/19 15:59,503
6/11/19 15:59,502
6/11/19 15:59,504
6/11/19 15:59,505
6/11/19 15:59,504
6/11/19 15:59,504
6/11/19 15:59,507
6/11/19 15:59,566
6/11/19 15:59,576
6/11/19 15:59,486
6/11/19 15:59,494
6/11/19 15:59,504
6/11/19 15:59,502
6/11/19 15:59,489
6/11/19 15:59,476
6/11/19 15:59,477
6/11/19 15:59,478
6/11/19 15:59,471
6/11/19 15:59,474
6/11/19 15:59,483
6/11/19 15:59,487
6/11/19 15:59,492
6/11/19 15:59,496
6/11/19 15:59,500
6/11/19 15:59,504
6/11/19 15:59,509
6/11/19 15:59,513
6/11/19 15:59,515
6/11/19 15:59,516
6/11/19 15:59,522
6/11/19 15:59,521
6/11/19 15:59,523
6/11/19 15:59,524
6/11/19 15:59,520
6/11/19 15:59,522
6/11/19 15:59,518
6/11/19 15:59,515
6/11/19 15:59,514
6/11/19 15:59,511
6/11/19 15:59,512
6/11/19 15:59,508
6/11/19 15:59,506
6/11/19 15:59,507
6/11/19 15:59,506
6/11/19 15:59,506
6/11/19 15:59,502
6/11/19 15:59,503
6/11/19 15:59,503
6/11/19 15:59,501
6/11/19 15:59,501
6/11/19 15:59,500
6/11/19 15:59,500
6/11/19 15:59,501
6/11/19 15:59,499
6/11/19 15:59,498
6/11/19 15:59,499
6/11/19 15:59,500
6/11/19 15:59,501
6/11/19 15:59,501
6/11/19 15:59,502
6/11/19 15:59,502
6/11/19 15:59,501
6/11/19 15:59,503
6/11/19 15:59,505
6/11/19 15:59,502
6/11/19 15:59,501
6/11/19 15:59,503
6/11/19 15:59,505
6/11/19 15:59,503
6/11/19 15:59,505
6/11/19 15:59,502
6/11/19 15:59,505
6/11/19 15:59,508
6/11/19 15:59,580
6/11/19 15:59,534
6/11/19 15:59,481
6/11/19 15:59,500
6/11/19 15:59,494
6/11/19 15:59,505
6/11/19 15:59,481
6/11/19 15:59,490
6/11/19 15:59,483
6/11/19 15:59,478
6/11/19 15:59,484
6/11/19 15:59,472
6/11/19 15:59,473
6/11/19 15:59,479
6/11/19 15:59,485
6/11/19 15:59,491
6/11/19 15:59,496
6/11/19 15:59,501
6/11/19 15:59,507
6/11/19 15:59,511
6/11/19 15:59,516
6/11/19 15:59,521
6/11/19 15:59,523
6/11/19 15:59,525
6/11/19 15:59,526
6/11/19 15:59,524
6/11/19 15:59,525
6/11/19 15:59,522
6/11/19 15:59,522
6/11/19 15:59,519
6/11/19 15:59,515
6/11/19 15:59,514
6/11/19 15:59,509
6/11/19 15:59,507
6/11/19 15:59,506
6/11/19 15:59,505
6/11/19 15:59,504
6/11/19 15:59,505
6/11/19 15:59,504
6/11/19 15:59,504
6/11/19 15:59,503
6/11/19 15:59,502
6/11/19 15:59,500
6/11/19 15:59,499
6/11/19 15:59,499
6/11/19 15:59,500
6/11/19 15:59,500
6/11/19 15:59,498
6/11/19 15:59,498
6/11/19 15:59,501
6/11/19 15:59,500
6/11/19 15:59,498
6/11/19 15:59,499
6/11/19 15:59,503
6/11/19 15:59,502
6/11/19 15:59,503
6/11/19 15:59,503
6/11/19 15:59,504
6/11/19 15:59,503
6/11/19 15:59,503
6/11/19 15:59,505
6/11/19 15:59,502
6/11/19 15:59,504
6/11/19 15:59,503
6/11/19 15:59,504
6/11/19 15:59,505
6/11/19 15:59,505
6/11/19 15:59,505
6/11/19 15:59,562
6/11/19 15:59,581
6/11/19 15:59,491
6/11/19 15:59,493
6/11/19 15:59,495
6/11/19 15:59,491
6/11/19 15:59,493
6/11/19 15:59,483
6/11/19 15:59,477
6/11/19 15:59,481
6/11/19 15:59,487
6/11/19 15:59,477
6/11/19 15:59,478
6/11/19 15:59,482
6/11/19 15:59,489
6/11/19 15:59,495
6/11/19 15:59,499
6/11/19 15:59,502
6/11/19 15:59,508
6/11/19 15:59,514
6/11/19 15:59,517
6/11/19 15:59,520
6/11/19 15:59,523
6/11/19 15:59,523
6/11/19 15:59,523
6/11/19 15:59,523
6/11/19 15:59,522
6/11/19 15:59,522
6/11/19 15:59,520
6/11/19 15:59,518
6/11/19 15:59,515
6/11/19 15:59,512
6/11/19 15:59,510
6/11/19 15:59,509
6/11/19 15:59,506
6/11/19 15:59,504
6/11/19 15:59,505
6/11/19 15:59,502
6/11/19 15:59,504
6/11/19 15:59,504
6/11/19 15:59,502
6/11/19 15:59,501
6/11/19 15:59,501
6/11/19 15:59,500
6/11/19 15:59,499
6/11/19 15:59,499
6/11/19 15:59,499
6/11/19 15:59,499
6/11/19 15:59,499
6/11/19 15:59,499
6/11/19 15:59,499
6/11/19 15:59,500
6/11/19 15:59,502
6/11/19 15:59,502
6/11/19 15:59,503
6/11/19 15:59,502
6/11/19 15:59,503
6/11/19 15:59,502
6/11/19 15:59,503
6/11/19 15:59,504
6/11/19 15:59,503
6/11/19 15:59,503
6/11/19 15:59,504
6/11/19 15:59,503
6/11/19 15:59,504
6/11/19 15:59,546
6/11/19 15:59,586
6/11/19 15:59,493
6/11/19 15:59,492
6/11/19 15:59,504
6/11/19 15:59,486
6/11/19 15:59,503
6/11/19 15:59,495
6/11/19 15:59,487
6/11/19 15:59,479
6/11/19 15:59,471
6/11/19 15:59,473
6/11/19 15:59,479
6/11/19 15:59,483
6/11/19 15:59,491
6/11/19 15:59,495
6/11/19 15:59,496
6/11/19 15:59,501
6/11/19 15:59,503
6/11/19 15:59,509
6/11/19 15:59,513
6/11/19 15:59,515
6/11/19 15:59,519
6/11/19 15:59,521
6/11/19 15:59,523
6/11/19 15:59,522
6/11/19 15:59,523
6/11/19 15:59,523
6/11/19 15:59,520
6/11/19 15:59,520
6/11/19 15:59,516
6/11/19 15:59,513
6/11/19 15:59,510
6/11/19 15:59,508
6/11/19 15:59,508
6/11/19 15:59,506
6/11/19 15:59,507
6/11/19 15:59,507
6/11/19 15:59,505
6/11/19 15:59,505
6/11/19 15:59,503
6/11/19 15:59,503
6/11/19 15:59,501
6/11/19 15:59,499
6/11/19 15:59,499
6/11/19 15:59,499
6/11/19 15:59,499
6/11/19 15:59,500
6/11/19 15:59,501
6/11/19 15:59,500
6/11/19 15:59,500
6/11/19 15:59,500
6/11/19 15:59,501
6/11/19 15:59,502
6/11/19 15:59,503
6/11/19 15:59,503
6/11/19 15:59,504
6/11/19 15:59,504
6/11/19 15:59,502
6/11/19 15:59,503
6/11/19 15:59,502
6/11/19 15:59,503
6/11/19 15:59,502
6/11/19 15:59,504
6/11/19 15:59,504
6/11/19 15:59,542
6/11/19 15:59,591
6/11/19 15:59,495
6/11/19 15:59,489
6/11/19 16:08,511
6/11/19 16:08,512
6/11/19 16:08,517
6/11/19 16:08,521
6/11/19 16:08,524
6/11/19 16:08,526
6/11/19 16:08,526
6/11/19 16:08,526
6/11/19 16:08,525
6/11/19 16:08,522
6/11/19 16:08,520
6/11/19 16:08,516
6/11/19 16:08,513
6/11/19 16:08,513
6/11/19 16:08,508
6/11/19 16:08,506
6/11/19 16:08,506
6/11/19 16:08,503
6/11/19 16:08,502
6/11/19 16:08,504
6/11/19 16:08,501
6/11/19 16:08,500
6/11/19 16:08,500
6/11/19 16:08,499
6/11/19 16:08,500
6/11/19 16:08,500
6/11/19 16:08,499
6/11/19 16:08,500
6/11/19 16:08,502
6/11/19 16:08,500
6/11/19 16:08,499
6/11/19 16:08,501
6/11/19 16:08,500
6/11/19 16:08,500
6/11/19 16:08,501
6/11/19 16:08,503
6/11/19 16:08,502
6/11/19 16:08,501
6/11/19 16:08,505
6/11/19 16:08,504
6/11/19 16:08,504
6/11/19 16:08,505
6/11/19 16:08,502
6/11/19 16:08,502
6/11/19 16:08,503
6/11/19 16:08,504
6/11/19 16:08,505
6/11/19 16:08,503
6/11/19 16:08,505
6/11/19 16:08,581
6/11/19 16:08,543
6/11/19 16:08,483
6/11/19 16:08,492
6/11/19 16:08,498
6/11/19 16:08,484
6/11/19 16:08,508
6/11/19 16:08,491
6/11/19 16:08,478
6/11/19 16:08,477
6/11/19 16:08,478
6/11/19 16:08,484
6/11/19 16:08,486
6/11/19 16:08,487
6/11/19 16:08,491
6/11/19 16:08,492
6/11/19 16:08,494
6/11/19 16:08,498
6/11/19 16:08,502
6/11/19 16:08,508
6/11/19 16:08,514
6/11/19 16:08,518
6/11/19 16:08,520
6/11/19 16:08,521
6/11/19 16:08,521
6/11/19 16:08,509
6/11/19 16:08,521
6/11/19 16:08,525
6/11/19 16:08,524
6/11/19 16:08,520
6/11/19 16:08,517
6/11/19 16:08,514
6/11/19 16:08,513
6/11/19 16:08,509
6/11/19 16:08,507
6/11/19 16:08,506
6/11/19 16:08,506
6/11/19 16:08,505
6/11/19 16:08,505
6/11/19 16:08,503
6/11/19 16:08,501
6/11/19 16:08,502
6/11/19 16:08,499
6/11/19 16:08,501
6/11/19 16:08,501
6/11/19 16:08,499
6/11/19 16:08,501
6/11/19 16:08,500
6/11/19 16:08,500
6/11/19 16:08,502
6/11/19 16:08,500
6/11/19 16:08,501
6/11/19 16:08,502
6/11/19 16:08,504
6/11/19 16:08,503
6/11/19 16:08,502
6/11/19 16:08,504
6/11/19 16:08,503
6/11/19 16:08,503
6/11/19 16:08,502
6/11/19 16:08,502
6/11/19 16:08,502
6/11/19 16:08,501
6/11/19 16:08,504
6/11/19 16:08,507
6/11/19 16:08,560
6/11/19 16:08,591
6/11/19 16:08,483
6/11/19 16:08,492
6/11/19 16:08,498
6/11/19 16:08,488
6/11/19 16:08,493
6/11/19 16:08,484
6/11/19 16:08,484
6/11/19 16:08,483
6/11/19 16:08,475
6/11/19 16:08,479
6/11/19 16:08,484
6/11/19 16:08,489
6/11/19 16:08,494
6/11/19 16:08,495
6/11/19 16:08,498
6/11/19 16:08,499
6/11/19 16:08,504
6/11/19 16:08,508
6/11/19 16:08,511
6/11/19 16:08,516
6/11/19 16:08,520
6/11/19 16:08,521
6/11/19 16:08,524
6/11/19 16:08,524
6/11/19 16:08,522
6/11/19 16:08,521
6/11/19 16:08,522
6/11/19 16:08,516
6/11/19 16:08,516
6/11/19 16:08,514
6/11/19 16:08,510
6/11/19 16:08,509
6/11/19 16:08,508
6/11/19 16:08,505
6/11/19 16:08,506
6/11/19 16:08,506
6/11/19 16:08,503
6/11/19 16:08,502
6/11/19 16:08,502
6/11/19 16:08,501
6/11/19 16:08,500
6/11/19 16:08,500
6/11/19 16:08,500
6/11/19 16:08,501
6/11/19 16:08,500
6/11/19 16:08,500
6/11/19 16:08,501
6/11/19 16:08,501
6/11/19 16:08,501
6/11/19 16:08,500
6/11/19 16:08,501
6/11/19 16:08,502
6/11/19 16:08,503
6/11/19 16:08,502
6/11/19 16:08,502
6/11/19 16:08,503
6/11/19 16:08,502
6/11/19 16:08,502
6/11/19 16:08,505
6/11/19 16:08,504
6/11/19 16:08,502
6/11/19 16:08,502
6/11/19 16:08,503
6/11/19 16:08,504
6/11/19 16:08,531
6/11/19 16:08,592
6/11/19 16:08,496
6/11/19 16:08,486
6/11/19 16:08,497
6/11/19 16:08,487
6/11/19 16:08,485
6/11/19 16:08,487
6/11/19 16:08,480
6/11/19 16:08,482
6/11/19 16:08,486
6/11/19 16:08,476
6/11/19 16:08,478
6/11/19 16:08,483
6/11/19 16:08,489
6/11/19 16:08,493
6/11/19 16:08,496
6/11/19 16:08,502
6/11/19 16:08,507
6/11/19 16:08,513
6/11/19 16:08,514
6/11/19 16:08,519
6/11/19 16:08,523
6/11/19 16:08,525
6/11/19 16:08,525
6/11/19 16:08,526
6/11/19 16:08,525
6/11/19 16:08,525
6/11/19 16:08,521
6/11/19 16:08,517
6/11/19 16:08,515
6/11/19 16:08,513
6/11/19 16:08,511
6/11/19 16:08,508
6/11/19 16:08,507
6/11/19 16:08,505
6/11/19 16:08,506
6/11/19 16:08,504
6/11/19 16:08,503
6/11/19 16:08,502
6/11/19 16:08,503
6/11/19 16:08,499
6/11/19 16:08,499
6/11/19 16:08,500
6/11/19 16:08,499
6/11/19 16:08,499
6/11/19 16:08,500
6/11/19 16:08,499
6/11/19 16:08,498
6/11/19 16:08,499
6/11/19 16:08,501
6/11/19 16:08,501
6/11/19 16:08,504
6/11/19 16:08,503
6/11/19 16:08,503
6/11/19 16:08,501
6/11/19 16:08,502
6/11/19 16:08,503
6/11/19 16:08,504
6/11/19 16:08,503
6/11/19 16:08,503
6/11/19 16:08,503
6/11/19 16:08,503
6/11/19 16:08,503
6/11/19 16:08,506
6/11/19 16:08,504
6/11/19 16:08,579
6/11/19 16:08,550
6/11/19 16:08,475
6/11/19 16:08,499
6/11/19 16:08,504
6/11/19 16:08,482
6/11/19 16:08,496
6/11/19 16:08,506
6/11/19 16:08,494
6/11/19 16:08,490
6/11/19 16:08,473
6/11/19 16:08,469
6/11/19 16:08,476
6/11/19 16:08,481
6/11/19 16:08,487
6/11/19 16:08,492
6/11/19 16:08,496
6/11/19 16:08,499
6/11/19 16:08,505
6/11/19 16:08,510
6/11/19 16:08,516
6/11/19 16:08,519
6/11/19 16:08,520
6/11/19 16:08,524
6/11/19 16:08,525
6/11/19 16:08,524
6/11/19 16:08,525
6/11/19 16:08,522
6/11/19 16:08,520
6/11/19 16:08,517
6/11/19 16:08,514
6/11/19 16:08,514
6/11/19 16:08,509
6/11/19 16:08,509
6/11/19 16:08,506
6/11/19 16:08,503
6/11/19 16:08,504
6/11/19 16:08,502
6/11/19 16:08,503
6/11/19 16:08,503
6/11/19 16:08,502
6/11/19 16:08,503
6/11/19 16:08,500
6/11/19 16:08,500
6/11/19 16:08,500
6/11/19 16:08,500
6/11/19 16:08,499
6/11/19 16:08,500
6/11/19 16:08,501
6/11/19 16:08,501
6/11/19 16:08,502
6/11/19 16:08,502
6/11/19 16:08,502
6/11/19 16:08,502
6/11/19 16:08,502
6/11/19 16:08,502
6/11/19 16:08,502
6/11/19 16:08,504
6/11/19 16:08,503
6/11/19 16:08,505
6/11/19 16:08,503
6/11/19 16:08,503
6/11/19 16:08,505
6/11/19 16:08,504
6/11/19 16:08,502
6/11/19 16:08,509
6/11/19 16:08,590
6/11/19 16:08,526
6/11/19 16:08,481
6/11/19 16:08,495
6/11/19 16:08,506
6/11/19 16:08,496
6/11/19 16:08,487
6/11/19 16:08,479
6/11/19 16:08,469
6/11/19 16:08,473
6/11/19 16:08,477
6/11/19 16:08,483
6/11/19 16:08,489
6/11/19 16:08,493
6/11/19 16:08,496
6/11/19 16:08,496
6/11/19 16:08,498
6/11/19 16:08,503
6/11/19 16:08,506
6/11/19 16:08,510
6/11/19 16:08,513
6/11/19 16:08,518
6/11/19 16:08,521
6/11/19 16:08,521
6/11/19 16:08,522
6/11/19 16:08,520
6/11/19 16:08,521
6/11/19 16:08,518
6/11/19 16:08,517
6/11/19 16:08,514
6/11/19 16:08,499
6/11/19 16:08,512
6/11/19 16:08,513
6/11/19 16:08,513
6/11/19 16:08,511
6/11/19 16:08,508
6/11/19 16:08,507
6/11/19 16:08,505
6/11/19 16:08,504
6/11/19 16:08,504
6/11/19 16:08,500
6/11/19 16:08,502
6/11/19 16:08,500
6/11/19 16:08,500
6/11/19 16:08,501
6/11/19 16:08,499
6/11/19 16:08,499
6/11/19 16:08,499
6/11/19 16:08,498
6/11/19 16:08,500
6/11/19 16:08,501
6/11/19 16:08,503
6/11/19 16:08,503
6/11/19 16:08,503
6/11/19 16:08,504
6/11/19 16:08,503
6/11/19 16:08,504
6/11/19 16:08,503
6/11/19 16:08,503
6/11/19 16:08,505
6/11/19 16:08,503
6/11/19 16:08,504
6/11/19 16:08,505
6/11/19 16:08,538
6/11/19 16:08,591
6/11/19 16:08,491
6/11/19 16:08,489
6/11/19 16:08,500
6/11/19 16:08,489
6/11/19 16:08,488
6/11/19 16:08,497
6/11/19 16:08,494
6/11/19 16:08,482
6/11/19 16:08,475
6/11/19 16:08,480
6/11/19 16:08,482
6/11/19 16:08,486
6/11/19 16:08,488
6/11/19 16:08,491
6/11/19 16:08,494
6/11/19 16:08,496
6/11/19 16:08,501
6/11/19 16:08,505
6/11/19 16:08,510
6/11/19 16:08,515
6/11/19 16:08,518
6/11/19 16:08,522
6/11/19 16:08,523
6/11/19 16:08,524
6/11/19 16:08,522
6/11/19 16:08,521
6/11/19 16:08,521
6/11/19 16:08,520
6/11/19 16:08,514
6/11/19 16:08,513
6/11/19 16:08,509
6/11/19 16:08,509
6/11/19 16:08,508
6/11/19 16:08,508
6/11/19 16:08,507
6/11/19 16:08,505
6/11/19 16:08,506
6/11/19 16:08,503
6/11/19 16:08,503
6/11/19 16:08,501
6/11/19 16:08,499
6/11/19 16:08,500
6/11/19 16:08,502
6/11/19 16:08,502
6/11/19 16:08,500
6/11/19 16:08,500
6/11/19 16:08,501
6/11/19 16:08,498
6/11/19 16:08,500
6/11/19 16:08,501
6/11/19 16:08,501
6/11/19 16:08,504
6/11/19 16:08,502
6/11/19 16:08,504
6/11/19 16:08,503
6/11/19 16:08,503
6/11/19 16:08,504
6/11/19 16:08,504
6/11/19 16:08,503
6/11/19 16:08,503
6/11/19 16:08,502
6/11/19 16:08,504
6/11/19 16:08,503
6/11/19 16:08,503
6/11/19 16:08,503
6/11/19 16:08,569
6/11/19 16:08,575
6/11/19 16:08,483
6/11/19 16:08,498
6/11/19 16:08,502
6/11/19 16:08,479
6/11/19 16:08,490
6/11/19 16:08,480
6/11/19 16:08,477
6/11/19 16:08,471
6/11/19 16:08,495
6/11/19 16:08,489
6/11/19 16:08,482
6/11/19 16:08,481
6/11/19 16:08,487
6/11/19 16:08,495
6/11/19 16:08,500
6/11/19 16:08,504
6/11/19 16:08,510
6/11/19 16:08,513
6/11/19 16:08,518
6/11/19 16:08,520
6/11/19 16:08,524
6/11/19 16:08,524
6/11/19 16:08,524
6/11/19 16:08,525
6/11/19 16:08,523
6/11/19 16:08,520
6/11/19 16:08,520
6/11/19 16:08,516
6/11/19 16:08,515
6/11/19 16:08,512
6/11/19 16:08,507
6/11/19 16:08,506
6/11/19 16:08,506
6/11/19 16:08,503
6/11/19 16:08,505
6/11/19 16:08,503
6/11/19 16:08,502
6/11/19 16:08,501
6/11/19 16:08,502
6/11/19 16:08,502
6/11/19 16:08,500
6/11/19 16:08,502
6/11/19 16:08,501
6/11/19 16:08,499
6/11/19 16:08,500
6/11/19 16:08,499
6/11/19 16:08,501
6/11/19 16:08,500
6/11/19 16:08,500
6/11/19 16:08,501
6/11/19 16:08,501
6/11/19 16:08,504
6/11/19 16:08,502
6/11/19 16:08,501
6/11/19 16:08,503
6/11/19 16:08,502
6/11/19 16:08,504
6/11/19 16:08,503
6/11/19 16:08,504
6/11/19 16:08,503
6/11/19 16:08,503
6/11/19 16:08,504
6/11/19 16:08,503
6/11/19 16:08,505
6/11/19 16:08,526
6/11/19 16:08,585
6/11/19 16:08,502
6/11/19 16:08,481
6/11/19 16:08,506
6/11/19 16:08,500
6/11/19 16:08,489
6/11/19 16:08,479
6/11/19 16:08,478
6/11/19 16:08,477
6/11/19 16:08,480
6/11/19 16:08,495
6/11/19 16:08,482
6/11/19 16:08,471
6/11/19 16:08,475
6/11/19 16:08,484
6/11/19 16:08,493
6/11/19 16:08,502
6/11/19 16:08,507
6/11/19 16:08,515
6/11/19 16:08,519
6/11/19 16:08,522
6/11/19 16:08,526
6/11/19 16:08,528
6/11/19 16:08,528
6/11/19 16:08,527
6/11/19 16:08,525
6/11/19 16:08,524
6/11/19 16:08,521
6/11/19 16:08,515
6/11/19 16:08,514
6/11/19 16:08,510
6/11/19 16:08,510
6/11/19 16:08,507
6/11/19 16:08,500
6/11/19 16:08,500
6/11/19 16:08,507
6/11/19 16:08,509
6/11/19 16:08,505
6/11/19 16:08,505
6/11/19 16:08,504
6/11/19 16:08,502
6/11/19 16:08,501
6/11/19 16:08,499
6/11/19 16:08,500
6/11/19 16:08,497
6/11/19 16:08,501
6/11/19 16:08,501
6/11/19 16:08,499
6/11/19 16:08,500
6/11/19 16:08,500
6/11/19 16:08,501
6/11/19 16:08,500
6/11/19 16:08,501
6/11/19 16:08,502
6/11/19 16:08,501
6/11/19 16:08,502
6/11/19 16:08,501
6/11/19 16:08,504
6/11/19 16:08,503
6/11/19 16:08,502
6/11/19 16:08,503
6/11/19 16:08,504
6/11/19 16:08,505
6/11/19 16:08,577
6/11/19 16:08,554
6/11/19 16:08,478
6/11/19 16:08,496
6/11/19 16:08,491
6/11/19 16:08,499
6/11/19 16:08,485
6/11/19 16:08,488
6/11/19 16:08,488
6/11/19 16:08,487
6/11/19 16:08,476
6/11/19 16:08,473
6/11/19 16:08,480
6/11/19 16:08,483
6/11/19 16:08,490
6/11/19 16:08,494
6/11/19 16:08,497
6/11/19 16:08,500
6/11/19 16:08,505
6/11/19 16:08,509
6/11/19 16:08,514
6/11/19 16:08,518
6/11/19 16:08,523
6/11/19 16:08,524
6/11/19 16:08,524
6/11/19 16:08,526
6/11/19 16:08,523
6/11/19 16:08,522
6/11/19 16:17,508
6/11/19 16:17,506
6/11/19 16:17,505
6/11/19 16:17,501
6/11/19 16:17,507
6/11/19 16:17,502
6/11/19 16:17,501
6/11/19 16:17,501
6/11/19 16:17,498
6/11/19 16:17,499
6/11/19 16:17,496
6/11/19 16:17,499
6/11/19 16:17,499
6/11/19 16:17,498
6/11/19 16:17,502
6/11/19 16:17,498
6/11/19 16:17,500
6/11/19 16:17,501
6/11/19 16:17,500
6/11/19 16:17,505
6/11/19 16:17,502
6/11/19 16:17,504
6/11/19 16:17,502
6/11/19 16:17,501
6/11/19 16:17,504
6/11/19 16:17,501
6/11/19 16:17,505
6/11/19 16:17,501
6/11/19 16:17,503
6/11/19 16:17,505
6/11/19 16:17,502
6/11/19 16:17,508
6/11/19 16:17,504
6/11/19 16:17,503
6/11/19 16:17,510
6/11/19 16:17,588
6/11/19 16:17,530
6/11/19 16:17,477
6/11/19 16:17,494
6/11/19 16:17,505
6/11/19 16:17,474
6/11/19 16:17,491
6/11/19 16:17,479
6/11/19 16:17,477
6/11/19 16:17,482
6/11/19 16:17,482
6/11/19 16:17,491
6/11/19 16:17,488
6/11/19 16:17,490
6/11/19 16:17,496
6/11/19 16:17,492
6/11/19 16:17,501
6/11/19 16:17,499
6/11/19 16:17,504
6/11/19 16:17,511
6/11/19 16:17,511
6/11/19 16:17,520
6/11/19 16:17,518
6/11/19 16:17,522
6/11/19 16:17,525
6/11/19 16:17,520
6/11/19 16:17,523
6/11/19 16:17,519
6/11/19 16:17,520
6/11/19 16:17,516
6/11/19 16:17,512
6/11/19 16:17,512
6/11/19 16:17,507
6/11/19 16:17,508
6/11/19 16:17,509
6/11/19 16:17,504
6/11/19 16:17,508
6/11/19 16:17,503
6/11/19 16:17,505
6/11/19 16:17,503
6/11/19 16:17,501
6/11/19 16:17,503
6/11/19 16:17,498
6/11/19 16:17,502
6/11/19 16:17,501
6/11/19 16:17,498
6/11/19 16:17,503
6/11/19 16:17,498
6/11/19 16:17,502
6/11/19 16:17,500
6/11/19 16:17,496
6/11/19 16:17,495
6/11/19 16:17,503
6/11/19 16:17,509
6/11/19 16:17,507
6/11/19 16:17,506
6/11/19 16:17,508
6/11/19 16:17,503
6/11/19 16:17,504
6/11/19 16:17,503
6/11/19 16:17,502
6/11/19 16:17,505
6/11/19 16:17,502
6/11/19 16:17,578
6/11/19 16:17,573
6/11/19 16:17,476
6/11/19 16:17,494
6/11/19 16:17,488
6/11/19 16:17,498
6/11/19 16:17,483
6/11/19 16:17,486
6/11/19 16:17,482
6/11/19 16:17,475
6/11/19 16:17,484
6/11/19 16:17,476
6/11/19 16:17,477
6/11/19 16:17,485
6/11/19 16:17,489
6/11/19 16:17,496
6/11/19 16:17,497
6/11/19 16:17,502
6/11/19 16:17,508
6/11/19 16:17,510
6/11/19 16:17,519
6/11/19 16:17,519
6/11/19 16:17,524
6/11/19 16:17,526
6/11/19 16:17,526
6/11/19 16:17,529
6/11/19 16:17,523
6/11/19 16:17,522
6/11/19 16:17,522
6/11/19 16:17,514
6/11/19 16:17,516
6/11/19 16:17,498
6/11/19 16:17,507
6/11/19 16:17,511
6/11/19 16:17,511
6/11/19 16:17,513
6/11/19 16:17,507
6/11/19 16:17,508
6/11/19 16:17,506
6/11/19 16:17,501
6/11/19 16:17,504
6/11/19 16:17,498
6/11/19 16:17,499
6/11/19 16:17,498
6/11/19 16:17,496
6/11/19 16:17,501
6/11/19 16:17,496
6/11/19 16:17,500
6/11/19 16:17,500
6/11/19 16:17,497
6/11/19 16:17,503
6/11/19 16:17,497
6/11/19 16:17,502
6/11/19 16:17,503
6/11/19 16:17,499
6/11/19 16:17,504
6/11/19 16:17,502
6/11/19 16:17,507
6/11/19 16:17,503
6/11/19 16:17,503
6/11/19 16:17,504
6/11/19 16:17,501
6/11/19 16:17,503
6/11/19 16:17,505
6/11/19 16:17,503
6/11/19 16:17,506
6/11/19 16:17,544
6/11/19 16:17,601
6/11/19 16:17,487
6/11/19 16:17,485
6/11/19 16:17,498
6/11/19 16:17,482
6/11/19 16:17,487
6/11/19 16:17,487
6/11/19 16:17,480
6/11/19 16:17,482
6/11/19 16:17,472
6/11/19 16:17,483
6/11/19 16:17,492
6/11/19 16:17,496
6/11/19 16:17,498
6/11/19 16:17,496
6/11/19 16:17,503
6/11/19 16:17,500
6/11/19 16:17,503
6/11/19 16:17,506
6/11/19 16:17,508
6/11/19 16:17,517
6/11/19 16:17,517
6/11/19 16:17,521
6/11/19 16:17,524
6/11/19 16:17,521
6/11/19 16:17,524
6/11/19 16:17,520
6/11/19 16:17,518
6/11/19 16:17,519
6/11/19 16:17,512
6/11/19 16:17,516
6/11/19 16:17,508
6/11/19 16:17,507
6/11/19 16:17,508
6/11/19 16:17,489
6/11/19 16:17,504
6/11/19 16:17,506
6/11/19 16:17,509
6/11/19 16:17,507
6/11/19 16:17,503
6/11/19 16:17,505
6/11/19 16:17,500
6/11/19 16:17,500
6/11/19 16:17,501
6/11/19 16:17,499
6/11/19 16:17,503
6/11/19 16:17,499
6/11/19 16:17,502
6/11/19 16:17,503
6/11/19 16:17,499
6/11/19 16:17,503
6/11/19 16:17,499
6/11/19 16:17,503
6/11/19 16:17,503
6/11/19 16:17,502
6/11/19 16:17,505
6/11/19 16:17,500
6/11/19 16:17,504
6/11/19 16:17,503
6/11/19 16:17,502
6/11/19 16:17,506
6/11/19 16:17,501
6/11/19 16:17,505
6/11/19 16:17,551
6/11/19 16:17,591
6/11/19 16:17,487
6/11/19 16:17,483
6/11/19 16:17,498
6/11/19 16:17,485
6/11/19 16:17,483
6/11/19 16:17,484
6/11/19 16:17,475
6/11/19 16:17,483
6/11/19 16:17,495
6/11/19 16:17,486
6/11/19 16:17,481
6/11/19 16:17,479
6/11/19 16:17,489
6/11/19 16:17,492
6/11/19 16:17,495
6/11/19 16:17,503
6/11/19 16:17,503
6/11/19 16:17,515
6/11/19 16:17,516
6/11/19 16:17,520
6/11/19 16:17,524
6/11/19 16:17,521
6/11/19 16:17,528
6/11/19 16:17,524
6/11/19 16:17,523
6/11/19 16:17,524
6/11/19 16:17,520
6/11/19 16:17,520
6/11/19 16:17,512
6/11/19 16:17,510
6/11/19 16:17,511
6/11/19 16:17,505
6/11/19 16:17,508
6/11/19 16:17,503
6/11/19 16:17,504
6/11/19 16:17,506
6/11/19 16:17,501
6/11/19 16:17,504
6/11/19 16:17,502
6/11/19 16:17,501
6/11/19 16:17,502
6/11/19 16:17,497
6/11/19 16:17,501
6/11/19 16:17,497
6/11/19 16:17,502
6/11/19 16:17,489
6/11/19 16:17,494
6/11/19 16:17,506
6/11/19 16:17,504
6/11/19 16:17,506
6/11/19 16:17,506
6/11/19 16:17,502
6/11/19 16:17,506
6/11/19 16:17,501
6/11/19 16:17,504
6/11/19 16:17,503
6/11/19 16:17,500
6/11/19 16:17,503
6/11/19 16:17,499
6/11/19 16:17,504
6/11/19 16:17,504
6/11/19 16:17,501
6/11/19 16:17,507
6/11/19 16:17,533
6/11/19 16:17,598
6/11/19 16:17,492
6/11/19 16:17,473
6/11/19 16:17,507
6/11/19 16:17,493
6/11/19 16:17,488
6/11/19 16:17,483
6/11/19 16:17,485
6/11/19 16:17,474
6/11/19 16:17,468
6/11/19 16:17,480
6/11/19 16:17,483
6/11/19 16:17,487
6/11/19 16:17,496
6/11/19 16:17,495
6/11/19 16:17,500
6/11/19 16:17,501
6/11/19 16:17,505
6/11/19 16:17,511
6/11/19 16:17,509
6/11/19 16:17,519
6/11/19 16:17,518
6/11/19 16:17,521
6/11/19 16:17,524
6/11/19 16:17,520
6/11/19 16:17,524
6/11/19 16:17,520
6/11/19 16:17,519
6/11/19 16:17,519
6/11/19 16:17,512
6/11/19 16:17,513
6/11/19 16:17,508
6/11/19 16:17,509
6/11/19 16:17,508
6/11/19 16:17,503
6/11/19 16:17,509
6/11/19 16:17,502
6/11/19 16:17,492
6/11/19 16:17,506
6/11/19 16:17,504
6/11/19 16:17,508
6/11/19 16:17,502
6/11/19 16:17,502
6/11/19 16:17,504
6/11/19 16:17,498
6/11/19 16:17,503
6/11/19 16:17,499
6/11/19 16:17,501
6/11/19 16:17,499
6/11/19 16:17,499
6/11/19 16:17,504
6/11/19 16:17,499
6/11/19 16:17,503
6/11/19 16:17,501
6/11/19 16:17,501
6/11/19 16:17,505
6/11/19 16:17,501
6/11/19 16:17,504
6/11/19 16:17,504
6/11/19 16:17,502
6/11/19 16:17,505
6/11/19 16:17,502
6/11/19 16:17,506
6/11/19 16:17,572
6/11/19 16:17,588
6/11/19 16:17,478
6/11/19 16:17,486
6/11/19 16:17,493
6/11/19 16:17,491
6/11/19 16:17,502
6/11/19 16:17,503
6/11/19 16:17,483
6/11/19 16:17,474
6/11/19 16:17,480
6/11/19 16:17,470
6/11/19 16:17,472
6/11/19 16:17,473
6/11/19 16:17,485
6/11/19 16:17,488
6/11/19 16:17,495
6/11/19 16:17,503
6/11/19 16:17,493
6/11/19 16:17,514
6/11/19 16:17,522
6/11/19 16:17,525
6/11/19 16:17,530
6/11/19 16:17,528
6/11/19 16:17,531
6/11/19 16:17,528
6/11/19 16:17,525
6/11/19 16:17,527
6/11/19 16:17,518
6/11/19 16:17,521
6/11/19 16:17,514
6/11/19 16:17,513
6/11/19 16:17,510
6/11/19 16:17,506
6/11/19 16:17,507
6/11/19 16:17,503
6/11/19 16:17,503
6/11/19 16:17,504
6/11/19 16:17,500
6/11/19 16:17,505
6/11/19 16:17,499
6/11/19 16:17,501
6/11/19 16:17,502
6/11/19 16:17,498
6/11/19 16:17,503
6/11/19 16:17,491
6/11/19 16:17,498
6/11/19 16:17,503
6/11/19 16:17,499
6/11/19 16:17,504
6/11/19 16:17,500
6/11/19 16:17,502
6/11/19 16:17,504
6/11/19 16:17,501
6/11/19 16:17,505
6/11/19 16:17,502
6/11/19 16:17,504
6/11/19 16:17,504
6/11/19 16:17,500
6/11/19 16:17,505
6/11/19 16:17,500
6/11/19 16:17,503
6/11/19 16:17,502
6/11/19 16:17,502
6/11/19 16:17,506
6/11/19 16:17,492
6/11/19 16:17,576
6/11/19 16:17,570
6/11/19 16:17,482
6/11/19 16:17,498
6/11/19 16:17,498
6/11/19 16:17,488
6/11/19 16:17,509
6/11/19 16:17,488
6/11/19 16:17,481
6/11/19 16:17,475
6/11/19 16:17,479
6/11/19 16:17,482
6/11/19 16:17,484
6/11/19 16:17,488
6/11/19 16:17,486
6/11/19 16:17,492
6/11/19 16:17,493
6/11/19 16:17,497
6/11/19 16:17,504
6/11/19 16:17,504
6/11/19 16:17,510
6/11/19 16:17,515
6/11/19 16:17,519
6/11/19 16:17,523
6/11/19 16:17,521
6/11/19 16:17,526
6/11/19 16:17,522
6/11/19 16:17,520
6/11/19 16:17,521
6/11/19 16:17,516
6/11/19 16:17,517
6/11/19 16:17,513
6/11/19 16:17,510
6/11/19 16:17,510
6/11/19 16:17,504
6/11/19 16:17,508
6/11/19 16:17,504
6/11/19 16:17,504
6/11/19 16:17,506
6/11/19 16:17,501
6/11/19 16:17,505
6/11/19 16:17,500
6/11/19 16:17,502
6/11/19 16:17,502
6/11/19 16:17,497
6/11/19 16:17,500
6/11/19 16:17,498
6/11/19 16:17,501
6/11/19 16:17,503
6/11/19 16:17,498
6/11/19 16:17,504
6/11/19 16:17,500
6/11/19 16:17,487
6/11/19 16:17,503
6/11/19 16:17,506
6/11/19 16:17,512
6/11/19 16:17,505
6/11/19 16:17,506
6/11/19 16:17,507
6/11/19 16:17,502
6/11/19 16:17,507
6/11/19 16:17,501
6/11/19 16:17,504
6/11/19 16:17,503
6/11/19 16:17,501
6/11/19 16:17,550
6/11/19 16:17,596
6/11/19 16:17,485
6/11/19 16:17,484
6/11/19 16:17,494
6/11/19 16:17,491
6/11/19 16:17,479
6/11/19 16:17,481
6/11/19 16:17,487
6/11/19 16:17,473
6/11/19 16:17,478
6/11/19 16:17,479
6/11/19 16:17,488
6/11/19 16:17,492
6/11/19 16:17,491
6/11/19 16:17,500
6/11/19 16:17,498
6/11/19 16:17,506
6/11/19 16:17,509
6/11/19 16:17,510
6/11/19 16:17,518
6/11/19 16:17,513
6/11/19 16:17,511
6/11/19 16:17,524
6/11/19 16:17,528
6/11/19 16:17,530
6/11/19 16:17,522
6/11/19 16:17,525
6/11/19 16:17,519
6/11/19 16:17,514
6/11/19 16:17,514
6/11/19 16:17,508
6/11/19 16:17,513
6/11/19 16:17,506
6/11/19 16:17,506
6/11/19 16:17,506
6/11/19 16:17,501
6/11/19 16:17,505
6/11/19 16:17,503
6/11/19 16:17,502
6/11/19 16:17,504
6/11/19 16:17,499
6/11/19 16:17,504
6/11/19 16:17,498
6/11/19 16:17,499
6/11/19 16:17,500
6/11/19 16:17,497
6/11/19 16:17,502
6/11/19 16:17,498
6/11/19 16:17,501
6/11/19 16:17,503
6/11/19 16:17,498
6/11/19 16:17,503
6/11/19 16:17,502
6/11/19 16:17,504
6/11/19 16:17,504
6/11/19 16:17,502
6/11/19 16:17,505
6/11/19 16:17,501
6/11/19 16:17,502
6/11/19 16:17,504
6/11/19 16:17,502
6/11/19 16:17,507
6/11/19 16:17,504
6/11/19 16:17,572
6/11/19 16:17,571
6/11/19 16:17,473
6/11/19 16:17,497
6/11/19 16:17,492
6/11/19 16:17,492
6/11/19 16:17,492
6/11/19 16:17,495
6/11/19 16:17,497
6/11/19 16:17,481
6/11/19 16:17,483
6/11/19 16:17,472
6/11/19 16:17,473
6/11/19 16:17,480
6/11/19 16:17,481
6/11/19 16:17,490
6/11/19 16:17,494
6/11/19 16:17,498
6/11/19 16:17,505
6/11/19 16:17,506
6/11/19 16:17,515
6/11/19 16:17,519
6/11/19 16:17,520
6/11/19 16:17,527
6/11/19 16:17,524
6/11/19 16:17,529
6/11/19 16:17,525
6/11/19 16:17,523
6/11/19 16:17,525
6/11/19 16:17,517
6/11/19 16:17,518
6/11/19 16:17,514
6/11/19 16:17,508
6/11/19 16:17,509
6/11/19 16:17,503
6/11/19 16:17,507
6/11/19 16:17,504
6/11/19 16:17,505
6/11/19 16:17,504
6/11/19 16:17,500
6/11/19 16:17,505
6/11/19 16:17,500
6/11/19 16:17,498
6/11/19 16:17,490
6/11/19 16:17,499
6/11/19 16:17,506
6/11/19 16:17,503
6/11/19 16:17,504
6/11/19 16:26,513
6/11/19 16:26,512
6/11/19 16:26,513
6/11/19 16:26,509
6/11/19 16:26,510
6/11/19 16:26,508
6/11/19 16:26,504
6/11/19 16:26,494
6/11/19 16:26,498
6/11/19 16:26,508
6/11/19 16:26,507
6/11/19 16:26,507
6/11/19 16:26,505
6/11/19 16:26,501
6/11/19 16:26,501
6/11/19 16:26,500
6/11/19 16:26,499
6/11/19 16:26,500
6/11/19 16:26,499
6/11/19 16:26,500
6/11/19 16:26,499
6/11/19 16:26,500
6/11/19 16:26,499
6/11/19 16:26,498
6/11/19 16:26,497
6/11/19 16:26,503
6/11/19 16:26,505
6/11/19 16:26,505
6/11/19 16:26,503
6/11/19 16:26,503
6/11/19 16:26,504
6/11/19 16:26,504
6/11/19 16:26,501
6/11/19 16:26,501
6/11/19 16:26,504
6/11/19 16:26,503
6/11/19 16:26,504
6/11/19 16:26,505
6/11/19 16:26,555
6/11/19 16:26,596
6/11/19 16:26,484
6/11/19 16:26,491
6/11/19 16:26,495
6/11/19 16:26,504
6/11/19 16:26,477
6/11/19 16:26,490
6/11/19 16:26,490
6/11/19 16:26,479
6/11/19 16:26,482
6/11/19 16:26,486
6/11/19 16:26,475
6/11/19 16:26,477
6/11/19 16:26,483
6/11/19 16:26,488
6/11/19 16:26,493
6/11/19 16:26,498
6/11/19 16:26,503
6/11/19 16:26,509
6/11/19 16:26,514
6/11/19 16:26,520
6/11/19 16:26,523
6/11/19 16:26,524
6/11/19 16:26,527
6/11/19 16:26,528
6/11/19 16:26,526
6/11/19 16:26,523
6/11/19 16:26,522
6/11/19 16:26,521
6/11/19 16:26,516
6/11/19 16:26,516
6/11/19 16:26,511
6/11/19 16:26,510
6/11/19 16:26,507
6/11/19 16:26,503
6/11/19 16:26,499
6/11/19 16:26,495
6/11/19 16:26,497
6/11/19 16:26,510
6/11/19 16:26,509
6/11/19 16:26,507
6/11/19 16:26,505
6/11/19 16:26,503
6/11/19 16:26,500
6/11/19 16:26,501
6/11/19 16:26,501
6/11/19 16:26,499
6/11/19 16:26,500
6/11/19 16:26,499
6/11/19 16:26,498
6/11/19 16:26,501
6/11/19 16:26,500
6/11/19 16:26,500
6/11/19 16:26,502
6/11/19 16:26,502
6/11/19 16:26,503
6/11/19 16:26,502
6/11/19 16:26,504
6/11/19 16:26,504
6/11/19 16:26,500
6/11/19 16:26,503
6/11/19 16:26,503
6/11/19 16:26,503
6/11/19 16:26,503
6/11/19 16:26,505
6/11/19 16:26,505
6/11/19 16:26,504
6/11/19 16:26,542
6/11/19 16:26,602
6/11/19 16:26,490
6/11/19 16:26,488
6/11/19 16:26,499
6/11/19 16:26,487
6/11/19 16:26,495
6/11/19 16:26,502
6/11/19 16:26,480
6/11/19 16:26,474
6/11/19 16:26,474
6/11/19 16:26,481
6/11/19 16:26,468
6/11/19 16:26,485
6/11/19 16:26,492
6/11/19 16:26,497
6/11/19 16:26,497
6/11/19 16:26,499
6/11/19 16:26,502
6/11/19 16:26,507
6/11/19 16:26,511
6/11/19 16:26,515
6/11/19 16:26,517
6/11/19 16:26,520
6/11/19 16:26,521
6/11/19 16:26,523
6/11/19 16:26,521
6/11/19 16:26,523
6/11/19 16:26,522
6/11/19 16:26,518
6/11/19 16:26,517
6/11/19 16:26,513
6/11/19 16:26,513
6/11/19 16:26,509
6/11/19 16:26,507
6/11/19 16:26,507
6/11/19 16:26,506
6/11/19 16:26,506
6/11/19 16:26,505
6/11/19 16:26,503
6/11/19 16:26,503
6/11/19 16:26,501
6/11/19 16:26,502
6/11/19 16:26,500
6/11/19 16:26,500
6/11/19 16:26,501
6/11/19 16:26,500
6/11/19 16:26,500
6/11/19 16:26,501
6/11/19 16:26,500
6/11/19 16:26,501
6/11/19 16:26,502
6/11/19 16:26,502
6/11/19 16:26,500
6/11/19 16:26,502
6/11/19 16:26,503
6/11/19 16:26,503
6/11/19 16:26,503
6/11/19 16:26,501
6/11/19 16:26,492
6/11/19 16:26,501
6/11/19 16:26,507
6/11/19 16:26,510
6/11/19 16:26,510
6/11/19 16:26,510
6/11/19 16:26,507
6/11/19 16:26,520
6/11/19 16:26,589
6/11/19 16:26,510
6/11/19 16:26,480
6/11/19 16:26,492
6/11/19 16:26,487
6/11/19 16:26,483
6/11/19 16:26,491
6/11/19 16:26,485
6/11/19 16:26,473
6/11/19 16:26,476
6/11/19 16:26,482
6/11/19 16:26,488
6/11/19 16:26,491
6/11/19 16:26,493
6/11/19 16:26,496
6/11/19 16:26,499
6/11/19 16:26,502
6/11/19 16:26,504
6/11/19 16:26,507
6/11/19 16:26,511
6/11/19 16:26,516
6/11/19 16:26,519
6/11/19 16:26,520
6/11/19 16:26,520
6/11/19 16:26,522
6/11/19 16:26,521
6/11/19 16:26,518
6/11/19 16:26,519
6/11/19 16:26,517
6/11/19 16:26,514
6/11/19 16:26,514
6/11/19 16:26,509
6/11/19 16:26,510
6/11/19 16:26,507
6/11/19 16:26,506
6/11/19 16:26,505
6/11/19 16:26,504
6/11/19 16:26,506
6/11/19 16:26,503
6/11/19 16:26,503
6/11/19 16:26,501
6/11/19 16:26,500
6/11/19 16:26,501
6/11/19 16:26,500
6/11/19 16:26,500
6/11/19 16:26,502
6/11/19 16:26,500
6/11/19 16:26,500
6/11/19 16:26,501
6/11/19 16:26,501
6/11/19 16:26,501
6/11/19 16:26,497
6/11/19 16:26,485
6/11/19 16:26,506
6/11/19 16:26,510
6/11/19 16:26,510
6/11/19 16:26,509
6/11/19 16:26,508
6/11/19 16:26,506
6/11/19 16:26,504
6/11/19 16:26,506
6/11/19 16:26,504
6/11/19 16:26,505
6/11/19 16:26,539
6/11/19 16:26,589
6/11/19 16:26,489
6/11/19 16:26,488
6/11/19 16:26,499
6/11/19 16:26,485
6/11/19 16:26,495
6/11/19 16:26,485
6/11/19 16:26,483
6/11/19 16:26,485
6/11/19 16:26,476
6/11/19 16:26,474
6/11/19 16:26,473
6/11/19 16:26,490
6/11/19 16:26,496
6/11/19 16:26,497
6/11/19 16:26,500
6/11/19 16:26,501
6/11/19 16:26,504
6/11/19 16:26,510
6/11/19 16:26,513
6/11/19 16:26,514
6/11/19 16:26,519
6/11/19 16:26,520
6/11/19 16:26,523
6/11/19 16:26,522
6/11/19 16:26,523
6/11/19 16:26,520
6/11/19 16:26,516
6/11/19 16:26,519
6/11/19 16:26,506
6/11/19 16:26,522
6/11/19 16:26,520
6/11/19 16:26,515
6/11/19 16:26,513
6/11/19 16:26,507
6/11/19 16:26,506
6/11/19 16:26,506
6/11/19 16:26,504
6/11/19 16:26,503
6/11/19 16:26,501
6/11/19 16:26,500
6/11/19 16:26,498
6/11/19 16:26,499
6/11/19 16:26,497
6/11/19 16:26,498
6/11/19 16:26,500
6/11/19 16:26,501
6/11/19 16:26,499
6/11/19 16:26,499
6/11/19 16:26,500
6/11/19 16:26,501
6/11/19 16:26,502
6/11/19 16:26,503
6/11/19 16:26,502
6/11/19 16:26,501
6/11/19 16:26,502
6/11/19 16:26,502
6/11/19 16:26,502
6/11/19 16:26,506
6/11/19 16:26,504
6/11/19 16:26,503
6/11/19 16:26,503
6/11/19 16:26,488
6/11/19 16:26,503
6/11/19 16:26,509
6/11/19 16:26,513
6/11/19 16:26,590
6/11/19 16:26,538
6/11/19 16:26,481
6/11/19 16:26,496
6/11/19 16:26,491
6/11/19 16:26,485
6/11/19 16:26,484
6/11/19 16:26,484
6/11/19 16:26,474
6/11/19 16:26,479
6/11/19 16:26,484
6/11/19 16:26,489
6/11/19 16:26,495
6/11/19 16:26,496
6/11/19 16:26,497
6/11/19 16:26,499
6/11/19 16:26,500
6/11/19 16:26,501
6/11/19 16:26,506
6/11/19 16:26,513
6/11/19 16:26,513
6/11/19 16:26,517
6/11/19 16:26,521
6/11/19 16:26,520
6/11/19 16:26,522
6/11/19 16:26,523
6/11/19 16:26,520
6/11/19 16:26,518
6/11/19 16:26,517
6/11/19 16:26,515
6/11/19 16:26,514
6/11/19 16:26,509
6/11/19 16:26,507
6/11/19 16:26,507
6/11/19 16:26,506
6/11/19 16:26,505
6/11/19 16:26,506
6/11/19 16:26,505
6/11/19 16:26,503
6/11/19 16:26,496
6/11/19 16:26,491
6/11/19 16:26,498
6/11/19 16:26,506
6/11/19 16:26,508
6/11/19 16:26,506
6/11/19 16:26,503
6/11/19 16:26,505
6/11/19 16:26,503
6/11/19 16:26,502
6/11/19 16:26,501
6/11/19 16:26,499
6/11/19 16:26,500
6/11/19 16:26,501
6/11/19 16:26,500
6/11/19 16:26,503
6/11/19 16:26,504
6/11/19 16:26,503
6/11/19 16:26,502
6/11/19 16:26,487
6/11/19 16:26,506
6/11/19 16:26,508
6/11/19 16:26,509
6/11/19 16:26,509
6/11/19 16:26,539
6/11/19 16:26,593
6/11/19 16:26,486
6/11/19 16:26,490
6/11/19 16:26,502
6/11/19 16:26,504
6/11/19 16:26,496
6/11/19 16:26,490
6/11/19 16:26,486
6/11/19 16:26,474
6/11/19 16:26,467
6/11/19 16:26,478
6/11/19 16:26,479
6/11/19 16:26,480
6/11/19 16:26,484
6/11/19 16:26,491
6/11/19 16:26,495
6/11/19 16:26,498
6/11/19 16:26,504
6/11/19 16:26,508
6/11/19 16:26,515
6/11/19 16:26,518
6/11/19 16:26,521
6/11/19 16:26,526
6/11/19 16:26,527
6/11/19 16:26,528
6/11/19 16:26,527
6/11/19 16:26,521
6/11/19 16:26,522
6/11/19 16:26,521
6/11/19 16:26,516
6/11/19 16:26,515
6/11/19 16:26,509
6/11/19 16:26,486
6/11/19 16:26,506
6/11/19 16:26,513
6/11/19 16:26,513
6/11/19 16:26,509
6/11/19 16:26,507
6/11/19 16:26,505
6/11/19 16:26,505
6/11/19 16:26,502
6/11/19 16:26,499
6/11/19 16:26,499
6/11/19 16:26,499
6/11/19 16:26,497
6/11/19 16:26,499
6/11/19 16:26,498
6/11/19 16:26,498
6/11/19 16:26,498
6/11/19 16:26,500
6/11/19 16:26,501
6/11/19 16:26,501
6/11/19 16:26,504
6/11/19 16:26,500
6/11/19 16:26,501
6/11/19 16:26,501
6/11/19 16:26,503
6/11/19 16:26,504
6/11/19 16:26,502
6/11/19 16:26,505
6/11/19 16:26,505
6/11/19 16:26,503
6/11/19 16:26,503
6/11/19 16:26,502
6/11/19 16:26,503
6/11/19 16:26,504
6/11/19 16:26,506
6/11/19 16:26,599
6/11/19 16:26,521
6/11/19 16:26,479
6/11/19 16:26,488
6/11/19 16:26,506
6/11/19 16:26,479
6/11/19 16:26,477
6/11/19 16:26,486
6/11/19 16:26,476
6/11/19 16:26,477
6/11/19 16:26,484
6/11/19 16:26,488
6/11/19 16:26,489
6/11/19 16:26,492
6/11/19 16:26,494
6/11/19 16:26,498
6/11/19 16:26,498
6/11/19 16:26,504
6/11/19 16:26,507
6/11/19 16:26,511
6/11/19 16:26,516
6/11/19 16:26,518
6/11/19 16:26,509
6/11/19 16:26,527
6/11/19 16:26,527
6/11/19 16:26,530
6/11/19 16:26,526
6/11/19 16:26,522
6/11/19 16:26,520
6/11/19 16:26,518
6/11/19 16:26,513
6/11/19 16:26,509
6/11/19 16:26,507
6/11/19 16:26,507
6/11/19 16:26,505
6/11/19 16:26,504
6/11/19 16:26,504
6/11/19 16:26,505
6/11/19 16:26,502
6/11/19 16:26,504
6/11/19 16:26,501
6/11/19 16:26,500
6/11/19 16:26,502
6/11/19 16:26,499
6/11/19 16:26,499
6/11/19 16:26,499
6/11/19 16:26,499
6/11/19 16:26,501
6/11/19 16:26,500
6/11/19 16:26,501
6/11/19 16:26,503
6/11/19 16:26,502
6/11/19 16:26,501
6/11/19 16:26,500
6/11/19 16:26,502
6/11/19 16:26,502
6/11/19 16:26,502
6/11/19 16:26,503
6/11/19 16:26,503
6/11/19 16:26,505
6/11/19 16:26,502
6/11/19 16:26,503
6/11/19 16:26,505
6/11/19 16:26,550
6/11/19 16:26,583
6/11/19 16:26,488
6/11/19 16:26,490
6/11/19 16:26,492
6/11/19 16:26,486
6/11/19 16:26,488
6/11/19 16:26,492
6/11/19 16:26,485
6/11/19 16:26,479
6/11/19 16:26,482
6/11/19 16:26,487
6/11/19 16:26,491
6/11/19 16:26,493
6/11/19 16:26,495
6/11/19 16:26,495
6/11/19 16:26,500
6/11/19 16:26,500
6/11/19 16:26,504
6/11/19 16:26,511
6/11/19 16:26,515
6/11/19 16:26,519
6/11/19 16:26,519
6/11/19 16:26,523
6/11/19 16:26,521
6/11/19 16:26,521
6/11/19 16:26,521
6/11/19 16:26,518
6/11/19 16:26,518
6/11/19 16:26,515
6/11/19 16:26,513
6/11/19 16:26,511
6/11/19 16:26,508
6/11/19 16:26,491
6/11/19 16:26,507
6/11/19 16:26,510
6/11/19 16:26,510
6/11/19 16:26,508
6/11/19 16:26,507
6/11/19 16:26,503
6/11/19 16:26,503
6/11/19 16:26,502
6/11/19 16:26,500
6/11/19 16:26,501
6/11/19 16:26,500
6/11/19 16:26,498
6/11/19 16:26,501
6/11/19 16:26,500
6/11/19 16:26,499
6/11/19 16:26,500
6/11/19 16:26,500
6/11/19 16:26,501
6/11/19 16:26,501
6/11/19 16:26,501
6/11/19 16:26,502
6/11/19 16:26,503
6/11/19 16:26,506
6/11/19 16:26,501
6/11/19 16:26,503
6/11/19 16:26,504
6/11/19 16:26,503
6/11/19 16:26,505
6/11/19 16:26,505
6/11/19 16:26,581
6/11/19 16:26,551
6/11/19 16:26,478
6/11/19 16:26,492
6/11/19 16:26,495
6/11/19 16:26,502
6/11/19 16:26,478
6/11/19 16:26,490
6/11/19 16:26,486
6/11/19 16:26,487
6/11/19 16:26,475
6/11/19 16:26,477
6/11/19 16:26,480
6/11/19 16:26,484
6/11/19 16:26,489
6/11/19 16:26,493
6/11/19 16:26,496
6/11/19 16:26,501
6/11/19 16:26,505
6/11/19 16:26,508
6/11/19 16:26,516
6/11/19 16:26,518
6/11/19 16:26,522
6/11/19 16:26,524
6/11/19 16:26,524
6/11/19 16:26,526
6/11/19 16:26,523
6/11/19 16:26,523
6/11/19 16:26,519
6/11/19 16:26,518
6/11/19 16:26,515
6/11/19 16:26,513
6/11/19 16:26,511
6/11/19 16:26,510
6/11/19 16:26,506
6/11/19 16:26,507
6/11/19 16:26,503
6/11/19 16:26,504
6/11/19 16:26,502
6/11/19 16:26,496
6/11/19 16:35,485
6/11/19 16:35,484
6/11/19 16:35,476
6/11/19 16:35,476
6/11/19 16:35,479
6/11/19 16:35,486
6/11/19 16:35,488
6/11/19 16:35,489
6/11/19 16:35,489
6/11/19 16:35,492
6/11/19 16:35,494
6/11/19 16:35,481
6/11/19 16:35,495
6/11/19 16:35,515
6/11/19 16:35,518
6/11/19 16:35,523
6/11/19 16:35,527
6/11/19 16:35,523
6/11/19 16:35,507
6/11/19 16:35,508
6/11/19 16:35,530
6/11/19 16:35,532
6/11/19 16:35,528
6/11/19 16:35,523
6/11/19 16:35,518
6/11/19 16:35,513
6/11/19 16:35,511
6/11/19 16:35,507
6/11/19 16:35,505
6/11/19 16:35,507
6/11/19 16:35,505
6/11/19 16:35,503
6/11/19 16:35,503
6/11/19 16:35,501
6/11/19 16:35,501
6/11/19 16:35,501
6/11/19 16:35,499
6/11/19 16:35,499
6/11/19 16:35,497
6/11/19 16:35,500
6/11/19 16:35,498
6/11/19 16:35,500
6/11/19 16:35,500
6/11/19 16:35,501
6/11/19 16:35,501
6/11/19 16:35,502
6/11/19 16:35,502
6/11/19 16:35,483
6/11/19 16:35,503
6/11/19 16:35,508
6/11/19 16:35,506
6/11/19 16:35,507
6/11/19 16:35,505
6/11/19 16:35,505
6/11/19 16:35,505
6/11/19 16:35,504
6/11/19 16:35,504
6/11/19 16:35,504
6/11/19 16:35,503
6/11/19 16:35,504
6/11/19 16:35,576
6/11/19 16:35,578
6/11/19 16:35,481
6/11/19 16:35,494
6/11/19 16:35,486
6/11/19 16:35,466
6/11/19 16:35,473
6/11/19 16:35,488
6/11/19 16:35,495
6/11/19 16:35,484
6/11/19 16:35,482
6/11/19 16:35,487
6/11/19 16:35,492
6/11/19 16:35,494
6/11/19 16:35,496
6/11/19 16:35,497
6/11/19 16:35,500
6/11/19 16:35,503
6/11/19 16:35,508
6/11/19 16:35,509
6/11/19 16:35,514
6/11/19 16:35,519
6/11/19 16:35,521
6/11/19 16:35,522
6/11/19 16:35,524
6/11/19 16:35,521
6/11/19 16:35,522
6/11/19 16:35,519
6/11/19 16:35,517
6/11/19 16:35,516
6/11/19 16:35,513
6/11/19 16:35,509
6/11/19 16:35,509
6/11/19 16:35,507
6/11/19 16:35,505
6/11/19 16:35,505
6/11/19 16:35,506
6/11/19 16:35,504
6/11/19 16:35,504
6/11/19 16:35,504
6/11/19 16:35,503
6/11/19 16:35,501
6/11/19 16:35,499
6/11/19 16:35,499
6/11/19 16:35,495
6/11/19 16:35,484
6/11/19 16:35,505
6/11/19 16:35,508
6/11/19 16:35,508
6/11/19 16:35,507
6/11/19 16:35,507
6/11/19 16:35,505
6/11/19 16:35,503
6/11/19 16:35,502
6/11/19 16:35,503
6/11/19 16:35,502
6/11/19 16:35,503
6/11/19 16:35,502
6/11/19 16:35,500
6/11/19 16:35,500
6/11/19 16:35,502
6/11/19 16:35,503
6/11/19 16:35,505
6/11/19 16:35,582
6/11/19 16:35,542
6/11/19 16:35,476
6/11/19 16:35,489
6/11/19 16:35,498
6/11/19 16:35,485
6/11/19 16:35,488
6/11/19 16:35,482
6/11/19 16:35,481
6/11/19 16:35,487
6/11/19 16:35,472
6/11/19 16:35,480
6/11/19 16:35,487
6/11/19 16:35,491
6/11/19 16:35,494
6/11/19 16:35,500
6/11/19 16:35,501
6/11/19 16:35,505
6/11/19 16:35,510
6/11/19 16:35,514
6/11/19 16:35,517
6/11/19 16:35,520
6/11/19 16:35,515
6/11/19 16:35,525
6/11/19 16:35,526
6/11/19 16:35,508
6/11/19 16:35,524
6/11/19 16:35,527
6/11/19 16:35,525
6/11/19 16:35,521
6/11/19 16:35,518
6/11/19 16:35,511
6/11/19 16:35,509
6/11/19 16:35,504
6/11/19 16:35,504
6/11/19 16:35,502
6/11/19 16:35,504
6/11/19 16:35,505
6/11/19 16:35,505
6/11/19 16:35,503
6/11/19 16:35,501
6/11/19 16:35,499
6/11/19 16:35,498
6/11/19 16:35,499
6/11/19 16:35,500
6/11/19 16:35,499
6/11/19 16:35,499
6/11/19 16:35,499
6/11/19 16:35,499
6/11/19 16:35,499
6/11/19 16:35,500
6/11/19 16:35,501
6/11/19 16:35,503
6/11/19 16:35,495
6/11/19 16:35,493
6/11/19 16:35,509
6/11/19 16:35,499
6/11/19 16:35,508
6/11/19 16:35,511
6/11/19 16:35,506
6/11/19 16:35,507
6/11/19 16:35,505
6/11/19 16:35,505
6/11/19 16:35,505
6/11/19 16:35,471
6/11/19 16:35,589
6/11/19 16:35,520
6/11/19 16:35,506
6/11/19 16:35,513
6/11/19 16:35,504
6/11/19 16:35,509
6/11/19 16:35,497
6/11/19 16:35,475
6/11/19 16:35,469
6/11/19 16:35,472
6/11/19 16:35,476
6/11/19 16:35,480
6/11/19 16:35,484
6/11/19 16:35,487
6/11/19 16:35,489
6/11/19 16:35,495
6/11/19 16:35,498
6/11/19 16:35,503
6/11/19 16:35,507
6/11/19 16:35,494
6/11/19 16:35,519
6/11/19 16:35,523
6/11/19 16:35,526
6/11/19 16:35,525
6/11/19 16:35,525
6/11/19 16:35,525
6/11/19 16:35,521
6/11/19 16:35,519
6/11/19 16:35,518
6/11/19 16:35,515
6/11/19 16:35,511
6/11/19 16:35,510
6/11/19 16:35,509
6/11/19 16:35,508
6/11/19 16:35,505
6/11/19 16:35,506
6/11/19 16:35,505
6/11/19 16:35,505
6/11/19 16:35,503
6/11/19 16:35,500
6/11/19 16:35,502
6/11/19 16:35,499
6/11/19 16:35,501
6/11/19 16:35,501
6/11/19 16:35,501
6/11/19 16:35,501
6/11/19 16:35,499
6/11/19 16:35,501
6/11/19 16:35,503
6/11/19 16:35,500
6/11/19 16:35,501
6/11/19 16:35,501
6/11/19 16:35,494
6/11/19 16:35,485
6/11/19 16:35,505
6/11/19 16:35,512
6/11/19 16:35,510
6/11/19 16:35,509
6/11/19 16:35,506
6/11/19 16:35,506
6/11/19 16:35,505
6/11/19 16:35,526
6/11/19 16:35,586
6/11/19 16:35,502
6/11/19 16:35,476
6/11/19 16:35,503
6/11/19 16:35,510
6/11/19 16:35,492
6/11/19 16:35,478
6/11/19 16:35,472
6/11/19 16:35,476
6/11/19 16:35,467
6/11/19 16:35,473
6/11/19 16:35,477
6/11/19 16:35,483
6/11/19 16:35,489
6/11/19 16:35,494
6/11/19 16:35,494
6/11/19 16:35,503
6/11/19 16:35,510
6/11/19 16:35,517
6/11/19 16:35,519
6/11/19 16:35,522
6/11/19 16:35,523
6/11/19 16:35,523
6/11/19 16:35,522
6/11/19 16:35,524
6/11/19 16:35,523
6/11/19 16:35,521
6/11/19 16:35,519
6/11/19 16:35,518
6/11/19 16:35,514
6/11/19 16:35,514
6/11/19 16:35,509
6/11/19 16:35,507
6/11/19 16:35,506
6/11/19 16:35,505
6/11/19 16:35,503
6/11/19 16:35,503
6/11/19 16:35,504
6/11/19 16:35,504
6/11/19 16:35,501
6/11/19 16:35,501
6/11/19 16:35,500
6/11/19 16:35,500
6/11/19 16:35,501
6/11/19 16:35,499
6/11/19 16:35,500
6/11/19 16:35,500
6/11/19 16:35,500
6/11/19 16:35,501
6/11/19 16:35,501
6/11/19 16:35,502
6/11/19 16:35,501
6/11/19 16:35,501
6/11/19 16:35,502
6/11/19 16:35,502
6/11/19 16:35,502
6/11/19 16:35,499
6/11/19 16:35,486
6/11/19 16:35,503
6/11/19 16:35,510
6/11/19 16:35,513
6/11/19 16:35,510
6/11/19 16:35,508
6/11/19 16:35,506
6/11/19 16:35,571
6/11/19 16:35,598
6/11/19 16:35,476
6/11/19 16:35,493
6/11/19 16:35,476
6/11/19 16:35,499
6/11/19 16:35,490
6/11/19 16:35,495
6/11/19 16:35,483
6/11/19 16:35,485
6/11/19 16:35,477
6/11/19 16:35,475
6/11/19 16:35,469
6/11/19 16:35,464
6/11/19 16:35,491
6/11/19 16:35,494
6/11/19 16:35,502
6/11/19 16:35,509
6/11/19 16:35,515
6/11/19 16:35,515
6/11/19 16:35,518
6/11/19 16:35,522
6/11/19 16:35,522
6/11/19 16:35,507
6/11/19 16:35,525
6/11/19 16:35,530
6/11/19 16:35,527
6/11/19 16:35,524
6/11/19 16:35,522
6/11/19 16:35,517
6/11/19 16:35,517
6/11/19 16:35,514
6/11/19 16:35,509
6/11/19 16:35,508
6/11/19 16:35,505
6/11/19 16:35,504
6/11/19 16:35,504
6/11/19 16:35,501
6/11/19 16:35,503
6/11/19 16:35,502
6/11/19 16:35,485
6/11/19 16:35,504
6/11/19 16:35,502
6/11/19 16:35,508
6/11/19 16:35,504
6/11/19 16:35,505
6/11/19 16:35,503
6/11/19 16:35,501
6/11/19 16:35,500
6/11/19 16:35,500
6/11/19 16:35,500
6/11/19 16:35,501
6/11/19 16:35,500
6/11/19 16:35,502
6/11/19 16:35,500
6/11/19 16:35,502
6/11/19 16:35,502
6/11/19 16:35,503
6/11/19 16:35,501
6/11/19 16:35,504
6/11/19 16:35,503
6/11/19 16:35,503
6/11/19 16:35,503
6/11/19 16:35,502
6/11/19 16:35,487
6/11/19 16:35,500
6/11/19 16:35,513
6/11/19 16:35,593
6/11/19 16:35,551
6/11/19 16:35,482
6/11/19 16:35,493
6/11/19 16:35,501
6/11/19 16:35,484
6/11/19 16:35,492
6/11/19 16:35,481
6/11/19 16:35,474
6/11/19 16:35,477
6/11/19 16:35,484
6/11/19 16:35,488
6/11/19 16:35,489
6/11/19 16:35,484
6/11/19 16:35,491
6/11/19 16:35,498
6/11/19 16:35,502
6/11/19 16:35,504
6/11/19 16:35,507
6/11/19 16:35,511
6/11/19 16:35,515
6/11/19 16:35,518
6/11/19 16:35,519
6/11/19 16:35,523
6/11/19 16:35,522
6/11/19 16:35,522
6/11/19 16:35,521
6/11/19 16:35,519
6/11/19 16:35,518
6/11/19 16:35,516
6/11/19 16:35,511
6/11/19 16:35,510
6/11/19 16:35,509
6/11/19 16:35,509
6/11/19 16:35,507
6/11/19 16:35,505
6/11/19 16:35,504
6/11/19 16:35,505
6/11/19 16:35,505
6/11/19 16:35,503
6/11/19 16:35,502
6/11/19 16:35,503
6/11/19 16:35,499
6/11/19 16:35,499
6/11/19 16:35,498
6/11/19 16:35,499
6/11/19 16:35,501
6/11/19 16:35,501
6/11/19 16:35,500
6/11/19 16:35,500
6/11/19 16:35,501
6/11/19 16:35,502
6/11/19 16:35,503
6/11/19 16:35,502
6/11/19 16:35,502
6/11/19 16:35,501
6/11/19 16:35,496
6/11/19 16:35,496
6/11/19 16:35,508
6/11/19 16:35,508
6/11/19 16:35,509
6/11/19 16:35,507
6/11/19 16:35,506
6/11/19 16:35,509
6/11/19 16:35,583
6/11/19 16:35,550
6/11/19 16:35,478
6/11/19 16:35,495
6/11/19 16:35,491
6/11/19 16:35,487
6/11/19 16:35,482
6/11/19 16:35,489
6/11/19 16:35,477
6/11/19 16:35,476
6/11/19 16:35,481
6/11/19 16:35,488
6/11/19 16:35,491
6/11/19 16:35,495
6/11/19 16:35,496
6/11/19 16:35,498
6/11/19 16:35,501
6/11/19 16:35,503
6/11/19 16:35,507
6/11/19 16:35,510
6/11/19 16:35,514
6/11/19 16:35,517
6/11/19 16:35,519
6/11/19 16:35,521
6/11/19 16:35,522
6/11/19 16:35,520
6/11/19 16:35,522
6/11/19 16:35,518
6/11/19 16:35,516
6/11/19 16:35,514
6/11/19 16:35,513
6/11/19 16:35,510
6/11/19 16:35,507
6/11/19 16:35,506
6/11/19 16:35,491
6/11/19 16:35,504
6/11/19 16:35,508
6/11/19 16:35,510
6/11/19 16:35,510
6/11/19 16:35,507
6/11/19 16:35,506
6/11/19 16:35,503
6/11/19 16:35,503
6/11/19 16:35,501
6/11/19 16:35,498
6/11/19 16:35,500
6/11/19 16:35,500
6/11/19 16:35,499
6/11/19 16:35,501
6/11/19 16:35,501
6/11/19 16:35,500
6/11/19 16:35,502
6/11/19 16:35,501
6/11/19 16:35,487
6/11/19 16:35,504
6/11/19 16:35,507
6/11/19 16:35,508
6/11/19 16:35,507
6/11/19 16:35,504
6/11/19 16:35,503
6/11/19 16:35,502
6/11/19 16:35,505
6/11/19 16:35,506
6/11/19 16:35,580
6/11/19 16:35,546
6/11/19 16:35,475
6/11/19 16:35,494
6/11/19 16:35,488
6/11/19 16:35,506
6/11/19 16:35,484
6/11/19 16:35,483
6/11/19 16:35,480
6/11/19 16:35,477
6/11/19 16:35,484
6/11/19 16:35,478
6/11/19 16:35,478
6/11/19 16:35,484
6/11/19 16:35,489
6/11/19 16:35,494
6/11/19 16:35,497
6/11/19 16:35,503
6/11/19 16:35,507
6/11/19 16:35,511
6/11/19 16:35,516
6/11/19 16:35,521
6/11/19 16:35,526
6/11/19 16:35,524
6/11/19 16:35,525
6/11/19 16:35,525
6/11/19 16:35,525
6/11/19 16:35,508
6/11/19 16:35,519
6/11/19 16:35,522
6/11/19 16:35,521
6/11/19 16:35,517
6/11/19 16:35,514
6/11/19 16:35,510
6/11/19 16:35,507
6/11/19 16:35,505
6/11/19 16:35,496
6/11/19 16:35,504
6/11/19 16:35,506
6/11/19 16:35,505
6/11/19 16:35,503
6/11/19 16:35,503
6/11/19 16:35,501
6/11/19 16:35,500
6/11/19 16:35,498
6/11/19 16:35,499
6/11/19 16:35,498
6/11/19 16:35,500
6/11/19 16:35,498
6/11/19 16:35,499
6/11/19 16:35,498
6/11/19 16:35,499
6/11/19 16:35,502
6/11/19 16:35,502
6/11/19 16:35,502
6/11/19 16:35,502
6/11/19 16:35,502
6/11/19 16:35,503
6/11/19 16:35,504
6/11/19 16:35,501
6/11/19 16:35,503
6/11/19 16:35,503
6/11/19 16:35,503
6/11/19 16:35,503
6/11/19 16:35,502
6/11/19 16:35,505
6/11/19 16:35,504
6/11/19 16:35,506
6/11/19 16:35,581
6/11/19 16:35,550
6/11/19 16:35,482
6/11/19 16:35,503
6/11/19 16:35,495
6/11/19 16:35,500
6/11/19 16:35,496
6/11/19 16:35,484
6/11/19 16:35,482
6/11/19 16:35,480
6/11/19 16:35,479
6/11/19 16:35,480
6/11/19 16:35,486
6/11/19 16:35,490
6/11/19 16:35,493
6/11/19 16:35,496
6/11/19 16:35,497
6/11/19 16:35,503
6/11/19 16:35,502
6/11/19 16:35,510
6/11/19 16:35,513
6/11/19 16:35,517
6/11/19 16:35,520
6/11/19 16:35,519
6/11/19 16:44,498
6/11/19 16:44,499
6/11/19 16:44,497
6/11/19 16:44,499
6/11/19 16:44,495
6/11/19 16:44,498
6/11/19 16:44,498
6/11/19 16:44,498
6/11/19 16:44,502
6/11/19 16:44,498
6/11/19 16:44,503
6/11/19 16:44,500
6/11/19 16:44,502
6/11/19 16:44,505
6/11/19 16:44,482
6/11/19 16:44,497
6/11/19 16:44,509
6/11/19 16:44,513
6/11/19 16:44,514
6/11/19 16:44,506
6/11/19 16:44,510
6/11/19 16:44,581
6/11/19 16:44,570
6/11/19 16:44,479
6/11/19 16:44,490
6/11/19 16:44,501
6/11/19 16:44,475
6/11/19 16:44,477
6/11/19 16:44,482
6/11/19 16:44,474
6/11/19 16:44,480
6/11/19 16:44,471
6/11/19 16:44,484
6/11/19 16:44,499
6/11/19 16:44,499
6/11/19 16:44,501
6/11/19 16:44,498
6/11/19 16:44,501
6/11/19 16:44,504
6/11/19 16:44,504
6/11/19 16:44,511
6/11/19 16:44,513
6/11/19 16:44,518
6/11/19 16:44,522
6/11/19 16:44,517
6/11/19 16:44,522
6/11/19 16:44,519
6/11/19 16:44,522
6/11/19 16:44,520
6/11/19 16:44,515
6/11/19 16:44,517
6/11/19 16:44,512
6/11/19 16:44,512
6/11/19 16:44,508
6/11/19 16:44,506
6/11/19 16:44,507
6/11/19 16:44,504
6/11/19 16:44,507
6/11/19 16:44,506
6/11/19 16:44,502
6/11/19 16:44,503
6/11/19 16:44,499
6/11/19 16:44,501
6/11/19 16:44,501
6/11/19 16:44,500
6/11/19 16:44,503
6/11/19 16:44,497
6/11/19 16:44,502
6/11/19 16:44,499
6/11/19 16:44,486
6/11/19 16:44,506
6/11/19 16:44,499
6/11/19 16:44,508
6/11/19 16:44,509
6/11/19 16:44,507
6/11/19 16:44,509
6/11/19 16:44,504
6/11/19 16:44,507
6/11/19 16:44,502
6/11/19 16:44,503
6/11/19 16:44,504
6/11/19 16:44,500
6/11/19 16:44,505
6/11/19 16:44,503
6/11/19 16:44,560
6/11/19 16:44,591
6/11/19 16:44,479
6/11/19 16:44,491
6/11/19 16:44,498
6/11/19 16:44,494
6/11/19 16:44,489
6/11/19 16:44,499
6/11/19 16:44,503
6/11/19 16:44,479
6/11/19 16:44,473
6/11/19 16:44,485
6/11/19 16:44,473
6/11/19 16:44,471
6/11/19 16:44,473
6/11/19 16:44,483
6/11/19 16:44,491
6/11/19 16:44,493
6/11/19 16:44,505
6/11/19 16:44,506
6/11/19 16:44,505
6/11/19 16:44,516
6/11/19 16:44,526
6/11/19 16:44,535
6/11/19 16:44,531
6/11/19 16:44,533
6/11/19 16:44,530
6/11/19 16:44,526
6/11/19 16:44,524
6/11/19 16:44,520
6/11/19 16:44,519
6/11/19 16:44,515
6/11/19 16:44,505
6/11/19 16:44,507
6/11/19 16:44,509
6/11/19 16:44,509
6/11/19 16:44,506
6/11/19 16:44,505
6/11/19 16:44,502
6/11/19 16:44,488
6/11/19 16:44,504
6/11/19 16:44,505
6/11/19 16:44,505
6/11/19 16:44,503
6/11/19 16:44,503
6/11/19 16:44,501
6/11/19 16:44,500
6/11/19 16:44,500
6/11/19 16:44,500
6/11/19 16:44,499
6/11/19 16:44,501
6/11/19 16:44,499
6/11/19 16:44,501
6/11/19 16:44,502
6/11/19 16:44,501
6/11/19 16:44,499
6/11/19 16:44,502
6/11/19 16:44,501
6/11/19 16:44,501
6/11/19 16:44,504
6/11/19 16:44,503
6/11/19 16:44,504
6/11/19 16:44,505
6/11/19 16:44,505
6/11/19 16:44,504
6/11/19 16:44,504
6/11/19 16:44,505
6/11/19 16:44,582
6/11/19 16:44,576
6/11/19 16:44,474
6/11/19 16:44,475
6/11/19 16:44,509
6/11/19 16:44,488
6/11/19 16:44,489
6/11/19 16:44,492
6/11/19 16:44,479
6/11/19 16:44,480
6/11/19 16:44,484
6/11/19 16:44,485
6/11/19 16:44,491
6/11/19 16:44,491
6/11/19 16:44,493
6/11/19 16:44,495
6/11/19 16:44,495
6/11/19 16:44,500
6/11/19 16:44,502
6/11/19 16:44,507
6/11/19 16:44,512
6/11/19 16:44,517
6/11/19 16:44,519
6/11/19 16:44,518
6/11/19 16:44,509
6/11/19 16:44,525
6/11/19 16:44,532
6/11/19 16:44,529
6/11/19 16:44,524
6/11/19 16:44,519
6/11/19 16:44,517
6/11/19 16:44,513
6/11/19 16:44,510
6/11/19 16:44,506
6/11/19 16:44,505
6/11/19 16:44,504
6/11/19 16:44,504
6/11/19 16:44,504
6/11/19 16:44,503
6/11/19 16:44,500
6/11/19 16:44,499
6/11/19 16:44,499
6/11/19 16:44,499
6/11/19 16:44,500
6/11/19 16:44,501
6/11/19 16:44,500
6/11/19 16:44,499
6/11/19 16:44,499
6/11/19 16:44,500
6/11/19 16:44,502
6/11/19 16:44,501
6/11/19 16:44,502
6/11/19 16:44,502
6/11/19 16:44,504
6/11/19 16:44,503
6/11/19 16:44,503
6/11/19 16:44,503
6/11/19 16:44,505
6/11/19 16:44,504
6/11/19 16:44,504
6/11/19 16:44,502
6/11/19 16:44,503
6/11/19 16:44,508
6/11/19 16:44,583
6/11/19 16:44,542
6/11/19 16:44,479
6/11/19 16:44,487
6/11/19 16:44,501
6/11/19 16:44,493
6/11/19 16:44,481
6/11/19 16:44,477
6/11/19 16:44,465
6/11/19 16:44,488
6/11/19 16:44,491
6/11/19 16:44,496
6/11/19 16:44,494
6/11/19 16:44,493
6/11/19 16:44,496
6/11/19 16:44,495
6/11/19 16:44,499
6/11/19 16:44,500
6/11/19 16:44,504
6/11/19 16:44,509
6/11/19 16:44,515
6/11/19 16:44,516
6/11/19 16:44,516
6/11/19 16:44,520
6/11/19 16:44,521
6/11/19 16:44,520
6/11/19 16:44,521
6/11/19 16:44,518
6/11/19 16:44,515
6/11/19 16:44,514
6/11/19 16:44,513
6/11/19 16:44,513
6/11/19 16:44,509
6/11/19 16:44,507
6/11/19 16:44,506
6/11/19 16:44,506
6/11/19 16:44,506
6/11/19 16:44,506
6/11/19 16:44,503
6/11/19 16:44,501
6/11/19 16:44,501
6/11/19 16:44,501
6/11/19 16:44,501
6/11/19 16:44,484
6/11/19 16:44,493
6/11/19 16:44,506
6/11/19 16:44,509
6/11/19 16:44,508
6/11/19 16:44,507
6/11/19 16:44,505
6/11/19 16:44,503
6/11/19 16:44,503
6/11/19 16:44,502
6/11/19 16:44,502
6/11/19 16:44,501
6/11/19 16:44,500
6/11/19 16:44,502
6/11/19 16:44,503
6/11/19 16:44,504
6/11/19 16:44,503
6/11/19 16:44,504
6/11/19 16:44,504
6/11/19 16:44,504
6/11/19 16:44,503
6/11/19 16:44,498
6/11/19 16:44,493
6/11/19 16:44,510
6/11/19 16:44,499
6/11/19 16:44,509
6/11/19 16:44,510
6/11/19 16:44,509
6/11/19 16:44,508
6/11/19 16:44,511
6/11/19 16:44,591
6/11/19 16:44,538
6/11/19 16:44,476
6/11/19 16:44,505
6/11/19 16:44,495
6/11/19 16:44,491
6/11/19 16:44,475
6/11/19 16:44,466
6/11/19 16:44,472
6/11/19 16:44,477
6/11/19 16:44,482
6/11/19 16:44,486
6/11/19 16:44,490
6/11/19 16:44,492
6/11/19 16:44,494
6/11/19 16:44,482
6/11/19 16:44,502
6/11/19 16:44,511
6/11/19 16:44,518
6/11/19 16:44,517
6/11/19 16:44,518
6/11/19 16:44,522
6/11/19 16:44,522
6/11/19 16:44,522
6/11/19 16:44,521
6/11/19 16:44,518
6/11/19 16:44,517
6/11/19 16:44,515
6/11/19 16:44,513
6/11/19 16:44,511
6/11/19 16:44,509
6/11/19 16:44,508
6/11/19 16:44,506
6/11/19 16:44,508
6/11/19 16:44,505
6/11/19 16:44,503
6/11/19 16:44,504
6/11/19 16:44,485
6/11/19 16:44,497
6/11/19 16:44,510
6/11/19 16:44,511
6/11/19 16:44,509
6/11/19 16:44,508
6/11/19 16:44,506
6/11/19 16:44,505
6/11/19 16:44,503
6/11/19 16:44,501
6/11/19 16:44,499
6/11/19 16:44,501
6/11/19 16:44,500
6/11/19 16:44,501
6/11/19 16:44,499
6/11/19 16:44,501
6/11/19 16:44,501
6/11/19 16:44,502
6/11/19 16:44,503
6/11/19 16:44,503
6/11/19 16:44,502
6/11/19 16:44,502
6/11/19 16:44,503
6/11/19 16:44,502
6/11/19 16:44,503
6/11/19 16:44,504
6/11/19 16:44,503
6/11/19 16:44,509
6/11/19 16:44,577
6/11/19 16:44,548
6/11/19 16:44,476
6/11/19 16:44,494
6/11/19 16:44,506
6/11/19 16:44,500
6/11/19 16:44,481
6/11/19 16:44,474
6/11/19 16:44,469
6/11/19 16:44,487
6/11/19 16:44,472
6/11/19 16:44,480
6/11/19 16:44,487
6/11/19 16:44,493
6/11/19 16:44,495
6/11/19 16:44,501
6/11/19 16:44,504
6/11/19 16:44,508
6/11/19 16:44,512
6/11/19 16:44,515
6/11/19 16:44,520
6/11/19 16:44,521
6/11/19 16:44,523
6/11/19 16:44,524
6/11/19 16:44,522
6/11/19 16:44,520
6/11/19 16:44,519
6/11/19 16:44,517
6/11/19 16:44,514
6/11/19 16:44,514
6/11/19 16:44,512
6/11/19 16:44,509
6/11/19 16:44,506
6/11/19 16:44,507
6/11/19 16:44,504
6/11/19 16:44,489
6/11/19 16:44,501
6/11/19 16:44,510
6/11/19 16:44,508
6/11/19 16:44,506
6/11/19 16:44,506
6/11/19 16:44,505
6/11/19 16:44,501
6/11/19 16:44,499
6/11/19 16:44,500
6/11/19 16:44,500
6/11/19 16:44,500
6/11/19 16:44,500
6/11/19 16:44,500
6/11/19 16:44,501
6/11/19 16:44,499
6/11/19 16:44,502
6/11/19 16:44,503
6/11/19 16:44,503
6/11/19 16:44,502
6/11/19 16:44,501
6/11/19 16:44,502
6/11/19 16:44,502
6/11/19 16:44,502
6/11/19 16:44,503
6/11/19 16:44,503
6/11/19 16:44,502
6/11/19 16:44,504
6/11/19 16:44,502
6/11/19 16:44,506
6/11/19 16:44,494
6/11/19 16:44,592
6/11/19 16:44,523
6/11/19 16:44,488
6/11/19 16:44,501
6/11/19 16:44,498
6/11/19 16:44,497
6/11/19 16:44,491
6/11/19 16:44,482
6/11/19 16:44,480
6/11/19 16:44,482
6/11/19 16:44,486
6/11/19 16:44,489
6/11/19 16:44,488
6/11/19 16:44,489
6/11/19 16:44,488
6/11/19 16:44,490
6/11/19 16:44,495
6/11/19 16:44,496
6/11/19 16:44,500
6/11/19 16:44,505
6/11/19 16:44,512
6/11/19 16:44,499
6/11/19 16:44,517
6/11/19 16:44,526
6/11/19 16:44,528
6/11/19 16:44,525
6/11/19 16:44,526
6/11/19 16:44,522
6/11/19 16:44,520
6/11/19 16:44,518
6/11/19 16:44,515
6/11/19 16:44,512
6/11/19 16:44,509
6/11/19 16:44,508
6/11/19 16:44,505
6/11/19 16:44,505
6/11/19 16:44,504
6/11/19 16:44,503
6/11/19 16:44,504
6/11/19 16:44,503
6/11/19 16:44,501
6/11/19 16:44,502
6/11/19 16:44,499
6/11/19 16:44,499
6/11/19 16:44,500
6/11/19 16:44,501
6/11/19 16:44,500
6/11/19 16:44,500
6/11/19 16:44,502
6/11/19 16:44,501
6/11/19 16:44,502
6/11/19 16:44,503
6/11/19 16:44,502
6/11/19 16:44,503
6/11/19 16:44,503
6/11/19 16:44,502
6/11/19 16:44,503
6/11/19 16:44,493
6/11/19 16:44,503
6/11/19 16:44,504
6/11/19 16:44,493
6/11/19 16:44,510
6/11/19 16:44,513
6/11/19 16:44,511
6/11/19 16:44,508
6/11/19 16:44,507
6/11/19 16:44,505
6/11/19 16:44,509
6/11/19 16:44,583
6/11/19 16:44,526
6/11/19 16:44,481
6/11/19 16:44,499
6/11/19 16:44,486
6/11/19 16:44,483
6/11/19 16:44,496
6/11/19 16:44,482
6/11/19 16:44,474
6/11/19 16:44,477
6/11/19 16:44,470
6/11/19 16:44,484
6/11/19 16:44,493
6/11/19 16:44,496
6/11/19 16:44,496
6/11/19 16:44,499
6/11/19 16:44,500
6/11/19 16:44,504
6/11/19 16:44,506
6/11/19 16:44,513
6/11/19 16:44,515
6/11/19 16:44,518
6/11/19 16:44,520
6/11/19 16:44,520
6/11/19 16:44,516
6/11/19 16:44,522
6/11/19 16:44,522
6/11/19 16:44,522
6/11/19 16:44,520
6/11/19 16:44,516
6/11/19 16:44,514
6/11/19 16:44,510
6/11/19 16:44,508
6/11/19 16:44,508
6/11/19 16:44,504
6/11/19 16:44,506
6/11/19 16:44,499
6/11/19 16:44,491
6/11/19 16:44,506
6/11/19 16:44,507
6/11/19 16:44,505
6/11/19 16:44,506
6/11/19 16:44,502
6/11/19 16:44,500
6/11/19 16:44,501
6/11/19 16:44,500
6/11/19 16:44,500
6/11/19 16:44,500
6/11/19 16:44,499
6/11/19 16:44,499
6/11/19 16:44,501
6/11/19 16:44,501
6/11/19 16:44,502
6/11/19 16:44,502
6/11/19 16:44,504
6/11/19 16:44,486
6/11/19 16:44,495
6/11/19 16:44,509
6/11/19 16:44,511
6/11/19 16:44,511
6/11/19 16:44,509
6/11/19 16:44,506
6/11/19 16:44,505
6/11/19 16:44,532
6/11/19 16:44,601
6/11/19 16:44,491
6/11/19 16:44,489
6/11/19 16:44,496
6/11/19 16:44,506
6/11/19 16:44,493
6/11/19 16:44,487
6/11/19 16:44,490
6/11/19 16:44,487
6/11/19 16:44,478
6/11/19 16:44,471
6/11/19 16:44,475
6/11/19 16:44,480
6/11/19 16:44,482
6/11/19 16:44,487
6/11/19 16:44,489
6/11/19 16:44,494
6/11/19 16:44,498
6/11/19 16:44,501
6/11/19 16:44,509
6/11/19 16:44,514
6/11/19 16:44,518
6/11/19 16:44,506
6/11/19 16:44,532
6/11/19 16:44,536
6/11/19 16:44,534
6/11/19 16:44,530
6/11/19 16:44,527
6/11/19 16:44,524
6/11/19 16:44,519
6/11/19 16:44,517
6/11/19 16:44,514
6/11/19 16:44,510
6/11/19 16:44,507
6/11/19 16:44,505
6/11/19 16:44,505
6/11/19 16:44,503
6/11/19 16:44,501
6/11/19 16:44,501
6/11/19 16:44,501
6/11/19 16:44,500
6/11/19 16:44,501
6/11/19 16:44,500
6/11/19 16:44,500
6/11/19 16:44,500
6/11/19 16:44,485
6/11/19 16:44,500
6/11/19 16:44,506
6/11/19 16:44,506
6/11/19 16:44,504
6/11/19 16:53,504
6/11/19 16:53,504
6/11/19 16:53,502
6/11/19 16:53,503
6/11/19 16:53,507
6/11/19 16:53,579
6/11/19 16:53,528
6/11/19 16:53,476
6/11/19 16:53,503
6/11/19 16:53,493
6/11/19 16:53,499
6/11/19 16:53,485
6/11/19 16:53,473
6/11/19 16:53,483
6/11/19 16:53,479
6/11/19 16:53,481
6/11/19 16:53,488
6/11/19 16:53,486
6/11/19 16:53,486
6/11/19 16:53,494
6/11/19 16:53,495
6/11/19 16:53,499
6/11/19 16:53,500
6/11/19 16:53,503
6/11/19 16:53,506
6/11/19 16:53,510
6/11/19 16:53,514
6/11/19 16:53,518
6/11/19 16:53,519
6/11/19 16:53,521
6/11/19 16:53,521
6/11/19 16:53,522
6/11/19 16:53,518
6/11/19 16:53,520
6/11/19 16:53,517
6/11/19 16:53,514
6/11/19 16:53,513
6/11/19 16:53,509
6/11/19 16:53,507
6/11/19 16:53,497
6/11/19 16:53,511
6/11/19 16:53,511
6/11/19 16:53,508
6/11/19 16:53,509
6/11/19 16:53,506
6/11/19 16:53,505
6/11/19 16:53,503
6/11/19 16:53,503
6/11/19 16:53,501
6/11/19 16:53,500
6/11/19 16:53,491
6/11/19 16:53,497
6/11/19 16:53,502
6/11/19 16:53,504
6/11/19 16:53,502
6/11/19 16:53,505
6/11/19 16:53,503
6/11/19 16:53,503
6/11/19 16:53,503
6/11/19 16:53,502
6/11/19 16:53,501
6/11/19 16:53,501
6/11/19 16:53,488
6/11/19 16:53,500
6/11/19 16:53,507
6/11/19 16:53,513
6/11/19 16:53,510
6/11/19 16:53,508
6/11/19 16:53,507
6/11/19 16:53,505
6/11/19 16:53,504
6/11/19 16:53,504
6/11/19 16:53,518
6/11/19 16:53,593
6/11/19 16:53,503
6/11/19 16:53,484
6/11/19 16:53,491
6/11/19 16:53,494
6/11/19 16:53,481
6/11/19 16:53,482
6/11/19 16:53,487
6/11/19 16:53,475
6/11/19 16:53,476
6/11/19 16:53,481
6/11/19 16:53,487
6/11/19 16:53,491
6/11/19 16:53,492
6/11/19 16:53,492
6/11/19 16:53,486
6/11/19 16:53,487
6/11/19 16:53,511
6/11/19 16:53,517
6/11/19 16:53,520
6/11/19 16:53,520
6/11/19 16:53,523
6/11/19 16:53,523
6/11/19 16:53,523
6/11/19 16:53,523
6/11/19 16:53,522
6/11/19 16:53,502
6/11/19 16:53,520
6/11/19 16:53,523
6/11/19 16:53,519
6/11/19 16:53,505
6/11/19 16:53,512
6/11/19 16:53,514
6/11/19 16:53,511
6/11/19 16:53,508
6/11/19 16:53,507
6/11/19 16:53,505
6/11/19 16:53,504
6/11/19 16:53,501
6/11/19 16:53,504
6/11/19 16:53,502
6/11/19 16:53,499
6/11/19 16:53,498
6/11/19 16:53,499
6/11/19 16:53,499
6/11/19 16:53,499
6/11/19 16:53,499
6/11/19 16:53,500
6/11/19 16:53,500
6/11/19 16:53,499
6/11/19 16:53,484
6/11/19 16:53,502
6/11/19 16:53,509
6/11/19 16:53,509
6/11/19 16:53,508
6/11/19 16:53,505
6/11/19 16:53,502
6/11/19 16:53,504
6/11/19 16:53,503
6/11/19 16:53,503
6/11/19 16:53,501
6/11/19 16:53,498
6/11/19 16:53,507
6/11/19 16:53,509
6/11/19 16:53,587
6/11/19 16:53,551
6/11/19 16:53,481
6/11/19 16:53,484
6/11/19 16:53,490
6/11/19 16:53,492
6/11/19 16:53,492
6/11/19 16:53,456
6/11/19 16:53,478
6/11/19 16:53,486
6/11/19 16:53,490
6/11/19 16:53,493
6/11/19 16:53,494
6/11/19 16:53,496
6/11/19 16:53,497
6/11/19 16:53,500
6/11/19 16:53,502
6/11/19 16:53,505
6/11/19 16:53,510
6/11/19 16:53,512
6/11/19 16:53,516
6/11/19 16:53,518
6/11/19 16:53,514
6/11/19 16:53,518
6/11/19 16:53,522
6/11/19 16:53,524
6/11/19 16:53,521
6/11/19 16:53,518
6/11/19 16:53,517
6/11/19 16:53,515
6/11/19 16:53,510
6/11/19 16:53,509
6/11/19 16:53,509
6/11/19 16:53,506
6/11/19 16:53,505
6/11/19 16:53,506
6/11/19 16:53,504
6/11/19 16:53,503
6/11/19 16:53,502
6/11/19 16:53,501
6/11/19 16:53,502
6/11/19 16:53,499
6/11/19 16:53,501
6/11/19 16:53,502
6/11/19 16:53,500
6/11/19 16:53,500
6/11/19 16:53,498
6/11/19 16:53,499
6/11/19 16:53,500
6/11/19 16:53,499
6/11/19 16:53,502
6/11/19 16:53,503
6/11/19 16:53,504
6/11/19 16:53,503
6/11/19 16:53,490
6/11/19 16:53,499
6/11/19 16:53,506
6/11/19 16:53,511
6/11/19 16:53,510
6/11/19 16:53,506
6/11/19 16:53,496
6/11/19 16:53,504
6/11/19 16:53,559
6/11/19 16:53,596
6/11/19 16:53,482
6/11/19 16:53,494
6/11/19 16:53,500
6/11/19 16:53,499
6/11/19 16:53,486
6/11/19 16:53,491
6/11/19 16:53,484
6/11/19 16:53,477
6/11/19 16:53,485
6/11/19 16:53,460
6/11/19 16:53,479
6/11/19 16:53,488
6/11/19 16:53,493
6/11/19 16:53,496
6/11/19 16:53,498
6/11/19 16:53,501
6/11/19 16:53,507
6/11/19 16:53,509
6/11/19 16:53,515
6/11/19 16:53,518
6/11/19 16:53,521
6/11/19 16:53,523
6/11/19 16:53,524
6/11/19 16:53,523
6/11/19 16:53,523
6/11/19 16:53,523
6/11/19 16:53,520
6/11/19 16:53,518
6/11/19 16:53,515
6/11/19 16:53,511
6/11/19 16:53,512
6/11/19 16:53,508
6/11/19 16:53,505
6/11/19 16:53,505
6/11/19 16:53,504
6/11/19 16:53,505
6/11/19 16:53,504
6/11/19 16:53,503
6/11/19 16:53,503
6/11/19 16:53,502
6/11/19 16:53,502
6/11/19 16:53,500
6/11/19 16:53,482
6/11/19 16:53,498
6/11/19 16:53,505
6/11/19 16:53,496
6/11/19 16:53,502
6/11/19 16:53,505
6/11/19 16:53,505
6/11/19 16:53,505
6/11/19 16:53,506
6/11/19 16:53,503
6/11/19 16:53,501
6/11/19 16:53,502
6/11/19 16:53,501
6/11/19 16:53,502
6/11/19 16:53,503
6/11/19 16:53,502
6/11/19 16:53,501
6/11/19 16:53,485
6/11/19 16:53,506
6/11/19 16:53,508
6/11/19 16:53,497
6/11/19 16:53,505
6/11/19 16:53,509
6/11/19 16:53,508
6/11/19 16:53,524
6/11/19 16:53,597
6/11/19 16:53,502
6/11/19 16:53,483
6/11/19 16:53,494
6/11/19 16:53,500
6/11/19 16:53,496
6/11/19 16:53,487
6/11/19 16:53,482
6/11/19 16:53,469
6/11/19 16:53,471
6/11/19 16:53,475
6/11/19 16:53,481
6/11/19 16:53,486
6/11/19 16:53,490
6/11/19 16:53,494
6/11/19 16:53,495
6/11/19 16:53,501
6/11/19 16:53,504
6/11/19 16:53,507
6/11/19 16:53,512
6/11/19 16:53,515
6/11/19 16:53,503
6/11/19 16:53,523
6/11/19 16:53,530
6/11/19 16:53,528
6/11/19 16:53,526
6/11/19 16:53,523
6/11/19 16:53,521
6/11/19 16:53,517
6/11/19 16:53,515
6/11/19 16:53,514
6/11/19 16:53,510
6/11/19 16:53,507
6/11/19 16:53,508
6/11/19 16:53,505
6/11/19 16:53,497
6/11/19 16:53,505
6/11/19 16:53,509
6/11/19 16:53,506
6/11/19 16:53,506
6/11/19 16:53,503
6/11/19 16:53,489
6/11/19 16:53,497
6/11/19 16:53,506
6/11/19 16:53,505
6/11/19 16:53,502
6/11/19 16:53,502
6/11/19 16:53,503
6/11/19 16:53,502
6/11/19 16:53,502
6/11/19 16:53,501
6/11/19 16:53,501
6/11/19 16:53,501
6/11/19 16:53,502
6/11/19 16:53,503
6/11/19 16:53,502
6/11/19 16:53,503
6/11/19 16:53,501
6/11/19 16:53,492
6/11/19 16:53,484
6/11/19 16:53,509
6/11/19 16:53,514
6/11/19 16:53,510
6/11/19 16:53,545
6/11/19 16:53,598
6/11/19 16:53,491
6/11/19 16:53,488
6/11/19 16:53,493
6/11/19 16:53,490
6/11/19 16:53,485
6/11/19 16:53,480
6/11/19 16:53,490
6/11/19 16:53,476
6/11/19 16:53,474
6/11/19 16:53,478
6/11/19 16:53,486
6/11/19 16:53,490
6/11/19 16:53,494
6/11/19 16:53,497
6/11/19 16:53,499
6/11/19 16:53,503
6/11/19 16:53,506
6/11/19 16:53,504
6/11/19 16:53,494
6/11/19 16:53,523
6/11/19 16:53,530
6/11/19 16:53,530
6/11/19 16:53,529
6/11/19 16:53,528
6/11/19 16:53,522
6/11/19 16:53,522
6/11/19 16:53,518
6/11/19 16:53,515
6/11/19 16:53,512
6/11/19 16:53,510
6/11/19 16:53,508
6/11/19 16:53,506
6/11/19 16:53,505
6/11/19 16:53,505
6/11/19 16:53,502
6/11/19 16:53,504
6/11/19 16:53,498
6/11/19 16:53,498
6/11/19 16:53,507
6/11/19 16:53,506
6/11/19 16:53,504
6/11/19 16:53,503
6/11/19 16:53,500
6/11/19 16:53,502
6/11/19 16:53,501
6/11/19 16:53,501
6/11/19 16:53,500
6/11/19 16:53,500
6/11/19 16:53,501
6/11/19 16:53,501
6/11/19 16:53,501
6/11/19 16:53,502
6/11/19 16:53,503
6/11/19 16:53,502
6/11/19 16:53,502
6/11/19 16:53,504
6/11/19 16:53,502
6/11/19 16:53,503
6/11/19 16:53,503
6/11/19 16:53,502
6/11/19 16:53,505
6/11/19 16:53,505
6/11/19 16:53,503
6/11/19 16:53,502
6/11/19 16:53,503
6/11/19 16:53,504
6/11/19 16:53,500
6/11/19 16:53,495
6/11/19 16:53,511
6/11/19 16:53,507
6/11/19 16:53,509
6/11/19 16:53,509
6/11/19 16:53,506
6/11/19 16:53,509
6/11/19 16:53,589
6/11/19 16:53,548
6/11/19 16:53,477
6/11/19 16:53,483
6/11/19 16:53,481
6/11/19 16:53,483
6/11/19 16:53,485
6/11/19 16:53,485
6/11/19 16:53,487
6/11/19 16:53,488
6/11/19 16:53,490
6/11/19 16:53,493
6/11/19 16:53,495
6/11/19 16:53,497
6/11/19 16:53,499
6/11/19 16:53,496
6/11/19 16:53,497
6/11/19 16:53,498
6/11/19 16:53,494
6/11/19 16:53,517
6/11/19 16:53,522
6/11/19 16:53,524
6/11/19 16:53,523
6/11/19 16:53,522
6/11/19 16:53,518
6/11/19 16:53,517
6/11/19 16:53,516
6/11/19 16:53,515
6/11/19 16:53,513
6/11/19 16:53,511
6/11/19 16:53,510
6/11/19 16:53,508
6/11/19 16:53,507
6/11/19 16:53,505
6/11/19 16:53,504
6/11/19 16:53,505
6/11/19 16:53,500
6/11/19 16:53,494
6/11/19 16:53,509
6/11/19 16:53,507
6/11/19 16:53,504
6/11/19 16:53,499
6/11/19 16:53,505
6/11/19 16:53,507
6/11/19 16:53,505
6/11/19 16:53,505
6/11/19 16:53,503
6/11/19 16:53,501
6/11/19 16:53,501
6/11/19 16:53,501
6/11/19 16:53,501
6/11/19 16:53,501
6/11/19 16:53,501
6/11/19 16:53,502
6/11/19 16:53,503
6/11/19 16:53,502
6/11/19 16:53,501
6/11/19 16:53,503
6/11/19 16:53,502
6/11/19 16:53,502
6/11/19 16:53,503
6/11/19 16:53,503
6/11/19 16:53,503
6/11/19 16:53,503
6/11/19 16:53,505
6/11/19 16:53,507
6/11/19 16:53,502
6/11/19 16:53,488
6/11/19 16:53,509
6/11/19 16:53,582
6/11/19 16:53,547
6/11/19 16:53,481
6/11/19 16:53,510
6/11/19 16:53,503
6/11/19 16:53,495
6/11/19 16:53,496
6/11/19 16:53,497
6/11/19 16:53,478
6/11/19 16:53,482
6/11/19 16:53,473
6/11/19 16:53,469
6/11/19 16:53,471
6/11/19 16:53,480
6/11/19 16:53,486
6/11/19 16:53,491
6/11/19 16:53,499
6/11/19 16:53,504
6/11/19 16:53,506
6/11/19 16:53,514
6/11/19 16:53,518
6/11/19 16:53,522
6/11/19 16:53,524
6/11/19 16:53,524
6/11/19 16:53,524
6/11/19 16:53,523
6/11/19 16:53,523
6/11/19 16:53,521
6/11/19 16:53,520
6/11/19 16:53,509
6/11/19 16:53,506
6/11/19 16:53,517
6/11/19 16:53,515
6/11/19 16:53,512
6/11/19 16:53,509
6/11/19 16:53,506
6/11/19 16:53,505
6/11/19 16:53,503
6/11/19 16:53,503
6/11/19 16:53,504
6/11/19 16:53,502
6/11/19 16:53,500
6/11/19 16:53,500
6/11/19 16:53,499
6/11/19 16:53,491
6/11/19 16:53,498
6/11/19 16:53,505
6/11/19 16:53,503
6/11/19 16:53,503
6/11/19 16:53,502
6/11/19 16:53,502
6/11/19 16:53,501
6/11/19 16:53,501
6/11/19 16:53,490
6/11/19 16:53,495
6/11/19 16:53,509
6/11/19 16:53,508
6/11/19 16:53,508
6/11/19 16:53,507
6/11/19 16:53,505
6/11/19 16:53,504
6/11/19 16:53,502
6/11/19 16:53,503
6/11/19 16:53,503
6/11/19 16:53,501
6/11/19 16:53,504
6/11/19 16:53,504
6/11/19 16:53,503
6/11/19 16:53,504
6/11/19 16:53,509
6/11/19 16:53,595
6/11/19 16:53,525
6/11/19 16:53,479
6/11/19 16:53,494
6/11/19 16:53,498
6/11/19 16:53,485
6/11/19 16:53,485
6/11/19 16:53,479
6/11/19 16:53,481
6/11/19 16:53,483
6/11/19 16:53,487
6/11/19 16:53,488
6/11/19 16:53,489
6/11/19 16:53,491
6/11/19 16:53,492
6/11/19 16:53,496
6/11/19 16:53,498
6/11/19 16:53,502
6/11/19 16:53,506
6/11/19 16:53,509
6/11/19 16:53,516
6/11/19 16:53,517
6/11/19 16:53,519
6/11/19 16:53,505
6/11/19 16:53,517
6/11/19 16:53,516
6/11/19 16:53,524
6/11/19 16:53,527
6/11/19 16:53,523
6/11/19 16:53,520
6/11/19 16:53,515
6/11/19 16:53,512
6/11/19 16:53,510
6/11/19 16:53,509
6/11/19 16:53,505
6/11/19 16:53,506
6/11/19 16:53,503
6/11/19 16:53,503
6/11/19 16:53,503
6/11/19 16:53,502
6/11/19 16:53,503
6/11/19 16:53,501
6/11/19 16:53,500
6/11/19 16:53,500
6/11/19 16:53,500
6/11/19 16:53,500
6/11/19 16:53,501
6/11/19 16:53,499
6/11/19 16:53,499
6/11/19 16:53,501
6/11/19 16:53,500
6/11/19 16:53,504
6/11/19 16:53,501
6/11/19 16:53,501
6/11/19 17:02,491
6/11/19 17:02,494
6/11/19 17:02,496
6/11/19 17:02,479
6/11/19 17:02,483
6/11/19 17:02,465
6/11/19 17:02,484
6/11/19 17:02,482
6/11/19 17:02,470
6/11/19 17:02,490
6/11/19 17:02,492
6/11/19 17:02,497
6/11/19 17:02,497
6/11/19 17:02,494
6/11/19 17:02,502
6/11/19 17:02,499
6/11/19 17:02,503
6/11/19 17:02,509
6/11/19 17:02,507
6/11/19 17:02,500
6/11/19 17:02,519
6/11/19 17:02,523
6/11/19 17:02,526
6/11/19 17:02,522
6/11/19 17:02,519
6/11/19 17:02,517
6/11/19 17:02,520
6/11/19 17:02,521
6/11/19 17:02,516
6/11/19 17:02,518
6/11/19 17:02,508
6/11/19 17:02,509
6/11/19 17:02,507
6/11/19 17:02,502
6/11/19 17:02,507
6/11/19 17:02,502
6/11/19 17:02,505
6/11/19 17:02,502
6/11/19 17:02,500
6/11/19 17:02,503
6/11/19 17:02,498
6/11/19 17:02,501
6/11/19 17:02,500
6/11/19 17:02,499
6/11/19 17:02,501
6/11/19 17:02,496
6/11/19 17:02,502
6/11/19 17:02,491
6/11/19 17:02,495
6/11/19 17:02,508
6/11/19 17:02,501
6/11/19 17:02,510
6/11/19 17:02,509
6/11/19 17:02,509
6/11/19 17:02,508
6/11/19 17:02,502
6/11/19 17:02,504
6/11/19 17:02,502
6/11/19 17:02,504
6/11/19 17:02,506
6/11/19 17:02,503
6/11/19 17:02,586
6/11/19 17:02,550
6/11/19 17:02,477
6/11/19 17:02,489
6/11/19 17:02,502
6/11/19 17:02,489
6/11/19 17:02,490
6/11/19 17:02,490
6/11/19 17:02,483
6/11/19 17:02,479
6/11/19 17:02,488
6/11/19 17:02,492
6/11/19 17:02,475
6/11/19 17:02,477
6/11/19 17:02,478
6/11/19 17:02,490
6/11/19 17:02,492
6/11/19 17:02,500
6/11/19 17:02,504
6/11/19 17:02,500
6/11/19 17:02,521
6/11/19 17:02,522
6/11/19 17:02,526
6/11/19 17:02,528
6/11/19 17:02,527
6/11/19 17:02,529
6/11/19 17:02,525
6/11/19 17:02,523
6/11/19 17:02,521
6/11/19 17:02,515
6/11/19 17:02,517
6/11/19 17:02,512
6/11/19 17:02,511
6/11/19 17:02,509
6/11/19 17:02,504
6/11/19 17:02,509
6/11/19 17:02,503
6/11/19 17:02,505
6/11/19 17:02,504
6/11/19 17:02,502
6/11/19 17:02,505
6/11/19 17:02,497
6/11/19 17:02,503
6/11/19 17:02,500
6/11/19 17:02,499
6/11/19 17:02,502
6/11/19 17:02,498
6/11/19 17:02,502
6/11/19 17:02,501
6/11/19 17:02,500
6/11/19 17:02,502
6/11/19 17:02,497
6/11/19 17:02,499
6/11/19 17:02,483
6/11/19 17:02,505
6/11/19 17:02,514
6/11/19 17:02,508
6/11/19 17:02,512
6/11/19 17:02,507
6/11/19 17:02,505
6/11/19 17:02,504
6/11/19 17:02,501
6/11/19 17:02,502
6/11/19 17:02,485
6/11/19 17:02,518
6/11/19 17:02,605
6/11/19 17:02,511
6/11/19 17:02,486
6/11/19 17:02,492
6/11/19 17:02,482
6/11/19 17:02,499
6/11/19 17:02,489
6/11/19 17:02,483
6/11/19 17:02,479
6/11/19 17:02,489
6/11/19 17:02,487
6/11/19 17:02,474
6/11/19 17:02,481
6/11/19 17:02,483
6/11/19 17:02,486
6/11/19 17:02,493
6/11/19 17:02,494
6/11/19 17:02,502
6/11/19 17:02,502
6/11/19 17:02,510
6/11/19 17:02,515
6/11/19 17:02,516
6/11/19 17:02,523
6/11/19 17:02,520
6/11/19 17:02,524
6/11/19 17:02,526
6/11/19 17:02,522
6/11/19 17:02,521
6/11/19 17:02,506
6/11/19 17:02,524
6/11/19 17:02,511
6/11/19 17:02,516
6/11/19 17:02,519
6/11/19 17:02,513
6/11/19 17:02,512
6/11/19 17:02,508
6/11/19 17:02,506
6/11/19 17:02,507
6/11/19 17:02,500
6/11/19 17:02,503
6/11/19 17:02,501
6/11/19 17:02,499
6/11/19 17:02,502
6/11/19 17:02,495
6/11/19 17:02,501
6/11/19 17:02,497
6/11/19 17:02,497
6/11/19 17:02,502
6/11/19 17:02,497
6/11/19 17:02,502
6/11/19 17:02,477
6/11/19 17:02,501
6/11/19 17:02,513
6/11/19 17:02,509
6/11/19 17:02,509
6/11/19 17:02,507
6/11/19 17:02,505
6/11/19 17:02,508
6/11/19 17:02,501
6/11/19 17:02,505
6/11/19 17:02,503
6/11/19 17:02,501
6/11/19 17:02,503
6/11/19 17:02,550
6/11/19 17:02,603
6/11/19 17:02,484
6/11/19 17:02,474
6/11/19 17:02,495
6/11/19 17:02,491
6/11/19 17:02,493
6/11/19 17:02,490
6/11/19 17:02,477
6/11/19 17:02,481
6/11/19 17:02,480
6/11/19 17:02,491
6/11/19 17:02,490
6/11/19 17:02,492
6/11/19 17:02,494
6/11/19 17:02,492
6/11/19 17:02,497
6/11/19 17:02,496
6/11/19 17:02,502
6/11/19 17:02,505
6/11/19 17:02,507
6/11/19 17:02,514
6/11/19 17:02,514
6/11/19 17:02,519
6/11/19 17:02,522
6/11/19 17:02,520
6/11/19 17:02,524
6/11/19 17:02,520
6/11/19 17:02,520
6/11/19 17:02,506
6/11/19 17:02,513
6/11/19 17:02,521
6/11/19 17:02,500
6/11/19 17:02,509
6/11/19 17:02,517
6/11/19 17:02,514
6/11/19 17:02,513
6/11/19 17:02,508
6/11/19 17:02,508
6/11/19 17:02,504
6/11/19 17:02,501
6/11/19 17:02,503
6/11/19 17:02,496
6/11/19 17:02,501
6/11/19 17:02,474
6/11/19 17:02,498
6/11/19 17:02,513
6/11/19 17:02,507
6/11/19 17:02,508
6/11/19 17:02,506
6/11/19 17:02,502
6/11/19 17:02,504
6/11/19 17:02,500
6/11/19 17:02,504
6/11/19 17:02,501
6/11/19 17:02,500
6/11/19 17:02,503
6/11/19 17:02,500
6/11/19 17:02,503
6/11/19 17:02,502
6/11/19 17:02,501
6/11/19 17:02,504
6/11/19 17:02,503
6/11/19 17:02,577
6/11/19 17:02,574
6/11/19 17:02,476
6/11/19 17:02,493
6/11/19 17:02,503
6/11/19 17:02,485
6/11/19 17:02,481
6/11/19 17:02,487
6/11/19 17:02,478
6/11/19 17:02,474
6/11/19 17:02,487
6/11/19 17:02,486
6/11/19 17:02,490
6/11/19 17:02,493
6/11/19 17:02,493
6/11/19 17:02,498
6/11/19 17:02,496
6/11/19 17:02,500
6/11/19 17:02,506
6/11/19 17:02,494
6/11/19 17:02,509
6/11/19 17:02,518
6/11/19 17:02,513
6/11/19 17:02,527
6/11/19 17:02,526
6/11/19 17:02,530
6/11/19 17:02,522
6/11/19 17:02,526
6/11/19 17:02,522
6/11/19 17:02,515
6/11/19 17:02,516
6/11/19 17:02,509
6/11/19 17:02,508
6/11/19 17:02,508
6/11/19 17:02,504
6/11/19 17:02,507
6/11/19 17:02,501
6/11/19 17:02,505
6/11/19 17:02,503
6/11/19 17:02,501
6/11/19 17:02,504
6/11/19 17:02,498
6/11/19 17:02,502
6/11/19 17:02,501
6/11/19 17:02,499
6/11/19 17:02,503
6/11/19 17:02,498
6/11/19 17:02,500
6/11/19 17:02,485
6/11/19 17:02,504
6/11/19 17:02,511
6/11/19 17:02,505
6/11/19 17:02,507
6/11/19 17:02,504
6/11/19 17:02,501
6/11/19 17:02,504
6/11/19 17:02,500
6/11/19 17:02,505
6/11/19 17:02,502
6/11/19 17:02,503
6/11/19 17:02,505
6/11/19 17:02,492
6/11/19 17:02,514
6/11/19 17:02,593
6/11/19 17:02,516
6/11/19 17:02,479
6/11/19 17:02,490
6/11/19 17:02,494
6/11/19 17:02,473
6/11/19 17:02,491
6/11/19 17:02,499
6/11/19 17:02,480
6/11/19 17:02,482
6/11/19 17:02,482
6/11/19 17:02,488
6/11/19 17:02,492
6/11/19 17:02,490
6/11/19 17:02,496
6/11/19 17:02,493
6/11/19 17:02,489
6/11/19 17:02,502
6/11/19 17:02,505
6/11/19 17:02,499
6/11/19 17:02,510
6/11/19 17:02,524
6/11/19 17:02,524
6/11/19 17:02,522
6/11/19 17:02,527
6/11/19 17:02,521
6/11/19 17:02,523
6/11/19 17:02,518
6/11/19 17:02,515
6/11/19 17:02,518
6/11/19 17:02,511
6/11/19 17:02,510
6/11/19 17:02,510
6/11/19 17:02,507
6/11/19 17:02,507
6/11/19 17:02,503
6/11/19 17:02,507
6/11/19 17:02,504
6/11/19 17:02,503
6/11/19 17:02,504
6/11/19 17:02,482
6/11/19 17:02,492
6/11/19 17:02,507
6/11/19 17:02,507
6/11/19 17:02,509
6/11/19 17:02,505
6/11/19 17:02,505
6/11/19 17:02,503
6/11/19 17:02,502
6/11/19 17:02,504
6/11/19 17:02,497
6/11/19 17:02,502
6/11/19 17:02,501
6/11/19 17:02,498
6/11/19 17:02,502
6/11/19 17:02,499
6/11/19 17:02,503
6/11/19 17:02,502
6/11/19 17:02,502
6/11/19 17:02,505
6/11/19 17:02,499
6/11/19 17:02,504
6/11/19 17:02,520
6/11/19 17:02,596
6/11/19 17:02,502
6/11/19 17:02,483
6/11/19 17:02,503
6/11/19 17:02,492
6/11/19 17:02,498
6/11/19 17:02,481
6/11/19 17:02,499
6/11/19 17:02,490
6/11/19 17:02,478
6/11/19 17:02,479
6/11/19 17:02,485
6/11/19 17:02,484
6/11/19 17:02,489
6/11/19 17:02,474
6/11/19 17:02,489
6/11/19 17:02,502
6/11/19 17:02,490
6/11/19 17:02,507
6/11/19 17:02,509
6/11/19 17:02,515
6/11/19 17:02,520
6/11/19 17:02,519
6/11/19 17:02,524
6/11/19 17:02,521
6/11/19 17:02,523
6/11/19 17:02,523
6/11/19 17:02,518
6/11/19 17:02,521
6/11/19 17:02,514
6/11/19 17:02,517
6/11/19 17:02,513
6/11/19 17:02,509
6/11/19 17:02,512
6/11/19 17:02,505
6/11/19 17:02,506
6/11/19 17:02,489
6/11/19 17:02,494
6/11/19 17:02,513
6/11/19 17:02,509
6/11/19 17:02,512
6/11/19 17:02,508
6/11/19 17:02,503
6/11/19 17:02,506
6/11/19 17:02,500
6/11/19 17:02,501
6/11/19 17:02,500
6/11/19 17:02,497
6/11/19 17:02,501
6/11/19 17:02,479
6/11/19 17:02,502
6/11/19 17:02,507
6/11/19 17:02,506
6/11/19 17:02,507
6/11/19 17:02,502
6/11/19 17:02,507
6/11/19 17:02,503
6/11/19 17:02,502
6/11/19 17:02,502
6/11/19 17:02,500
6/11/19 17:02,505
6/11/19 17:02,502
6/11/19 17:02,501
6/11/19 17:02,494
6/11/19 17:02,502
6/11/19 17:02,510
6/11/19 17:02,595
6/11/19 17:02,567
6/11/19 17:02,479
6/11/19 17:02,486
6/11/19 17:02,511
6/11/19 17:02,491
6/11/19 17:02,484
6/11/19 17:02,478
6/11/19 17:02,473
6/11/19 17:02,482
6/11/19 17:02,465
6/11/19 17:02,487
6/11/19 17:02,498
6/11/19 17:02,493
6/11/19 17:02,497
6/11/19 17:02,495
6/11/19 17:02,496
6/11/19 17:02,499
6/11/19 17:02,499
6/11/19 17:02,507
6/11/19 17:02,508
6/11/19 17:02,514
6/11/19 17:02,516
6/11/19 17:02,517
6/11/19 17:02,522
6/11/19 17:02,520
6/11/19 17:02,522
6/11/19 17:02,522
6/11/19 17:02,517
6/11/19 17:02,502
6/11/19 17:02,517
6/11/19 17:02,522
6/11/19 17:02,517
6/11/19 17:02,512
6/11/19 17:02,513
6/11/19 17:02,507
6/11/19 17:02,508
6/11/19 17:02,506
6/11/19 17:02,490
6/11/19 17:02,506
6/11/19 17:02,504
6/11/19 17:02,508
6/11/19 17:02,503
6/11/19 17:02,499
6/11/19 17:02,504
6/11/19 17:02,498
6/11/19 17:02,502
6/11/19 17:02,500
6/11/19 17:02,498
6/11/19 17:02,501
6/11/19 17:02,497
6/11/19 17:02,503
6/11/19 17:02,500
6/11/19 17:02,501
6/11/19 17:02,504
6/11/19 17:02,502
6/11/19 17:02,503
6/11/19 17:02,501
6/11/19 17:02,501
6/11/19 17:02,503
6/11/19 17:02,501
6/11/19 17:02,505
6/11/19 17:02,502
6/11/19 17:02,502
6/11/19 17:02,526
6/11/19 17:02,599
6/11/19 17:02,501
6/11/19 17:02,491
6/11/19 17:02,495
6/11/19 17:02,500
6/11/19 17:02,496
6/11/19 17:02,509
6/11/19 17:02,475
6/11/19 17:02,472
6/11/19 17:02,479
6/11/19 17:02,479
6/11/19 17:02,487
6/11/19 17:02,488
6/11/19 17:02,489
6/11/19 17:02,492
6/11/19 17:02,491
6/11/19 17:02,499
6/11/19 17:02,495
6/11/19 17:02,502
6/11/19 17:02,508
6/11/19 17:02,508
6/11/19 17:02,517
6/11/19 17:02,514
6/11/19 17:02,520
6/11/19 17:02,521
6/11/19 17:02,521
6/11/19 17:02,527
6/11/19 17:02,519
6/11/19 17:02,520
6/11/19 17:02,518
6/11/19 17:02,513
6/11/19 17:02,514
6/11/19 17:02,509
6/11/19 17:02,509
6/11/19 17:02,508
6/11/19 17:02,493
6/11/19 17:02,504
6/11/19 17:02,507
6/11/19 17:02,511
6/11/19 17:02,499
6/11/19 17:02,503
6/11/19 17:02,508
6/11/19 17:02,503
6/11/19 17:02,504
6/11/19 17:02,503
6/11/19 17:02,499
6/11/19 17:02,502
6/11/19 17:02,499
6/11/19 17:02,502
6/11/19 17:02,499
6/11/19 17:02,498
6/11/19 17:02,503
6/11/19 17:02,500
6/11/19 17:02,502
6/11/19 17:02,501
6/11/19 17:02,503
6/11/19 17:02,505
6/11/19 17:02,501
6/11/19 17:02,503
6/11/19 17:02,501
6/11/19 17:02,503
6/11/19 17:02,503
6/11/19 17:02,483
6/11/19 17:02,517
6/11/19 17:02,601
6/11/19 17:02,516
6/11/19 17:02,485
6/11/19 17:02,481
6/11/19 17:02,500
6/11/19 17:02,487
6/11/19 17:02,489
6/11/19 17:02,482
6/11/19 17:02,478
6/11/19 17:02,487
6/11/19 17:02,485
6/11/19 17:02,491
6/11/19 17:02,492
6/11/19 17:02,492
6/11/19 17:02,494
6/11/19 17:02,492
6/11/19 17:02,495
6/11/19 17:02,499
6/11/19 17:02,500
6/11/19 17:02,509
6/11/19 17:02,510
6/11/19 17:02,516
6/11/19 17:02,517
6/11/19 17:02,517
6/11/19 17:02,524
6/11/19 17:02,519
6/11/19 17:02,522
6/11/19 17:11,505
6/11/19 17:11,506
6/11/19 17:11,505
6/11/19 17:11,504
6/11/19 17:11,500
6/11/19 17:11,501
6/11/19 17:11,516
6/11/19 17:11,588
6/11/19 17:11,504
6/11/19 17:11,458
6/11/19 17:11,496
6/11/19 17:11,510
6/11/19 17:11,505
6/11/19 17:11,481
6/11/19 17:11,479
6/11/19 17:11,478
6/11/19 17:11,481
6/11/19 17:11,483
6/11/19 17:11,485
6/11/19 17:11,486
6/11/19 17:11,486
6/11/19 17:11,488
6/11/19 17:11,491
6/11/19 17:11,494
6/11/19 17:11,500
6/11/19 17:11,502
6/11/19 17:11,507
6/11/19 17:11,514
6/11/19 17:11,515
6/11/19 17:11,519
6/11/19 17:11,523
6/11/19 17:11,520
6/11/19 17:11,505
6/11/19 17:11,511
6/11/19 17:11,530
6/11/19 17:11,531
6/11/19 17:11,525
6/11/19 17:11,520
6/11/19 17:11,516
6/11/19 17:11,514
6/11/19 17:11,507
6/11/19 17:11,505
6/11/19 17:11,505
6/11/19 17:11,505
6/11/19 17:11,505
6/11/19 17:11,503
6/11/19 17:11,500
6/11/19 17:11,501
6/11/19 17:11,500
6/11/19 17:11,498
6/11/19 17:11,485
6/11/19 17:11,505
6/11/19 17:11,508
6/11/19 17:11,506
6/11/19 17:11,504
6/11/19 17:11,503
6/11/19 17:11,489
6/11/19 17:11,502
6/11/19 17:11,505
6/11/19 17:11,489
6/11/19 17:11,515
6/11/19 17:11,515
6/11/19 17:11,511
6/11/19 17:11,507
6/11/19 17:11,504
6/11/19 17:11,502
6/11/19 17:11,503
6/11/19 17:11,502
6/11/19 17:11,502
6/11/19 17:11,499
6/11/19 17:11,529
6/11/19 17:11,592
6/11/19 17:11,493
6/11/19 17:11,484
6/11/19 17:11,490
6/11/19 17:11,491
6/11/19 17:11,483
6/11/19 17:11,491
6/11/19 17:11,466
6/11/19 17:11,472
6/11/19 17:11,480
6/11/19 17:11,486
6/11/19 17:11,491
6/11/19 17:11,494
6/11/19 17:11,495
6/11/19 17:11,497
6/11/19 17:11,497
6/11/19 17:11,499
6/11/19 17:11,504
6/11/19 17:11,507
6/11/19 17:11,512
6/11/19 17:11,515
6/11/19 17:11,519
6/11/19 17:11,519
6/11/19 17:11,521
6/11/19 17:11,522
6/11/19 17:11,520
6/11/19 17:11,520
6/11/19 17:11,518
6/11/19 17:11,518
6/11/19 17:11,514
6/11/19 17:11,509
6/11/19 17:11,499
6/11/19 17:11,513
6/11/19 17:11,510
6/11/19 17:11,517
6/11/19 17:11,516
6/11/19 17:11,513
6/11/19 17:11,509
6/11/19 17:11,505
6/11/19 17:11,504
6/11/19 17:11,502
6/11/19 17:11,500
6/11/19 17:11,499
6/11/19 17:11,500
6/11/19 17:11,498
6/11/19 17:11,481
6/11/19 17:11,497
6/11/19 17:11,505
6/11/19 17:11,507
6/11/19 17:11,505
6/11/19 17:11,504
6/11/19 17:11,487
6/11/19 17:11,502
6/11/19 17:11,506
6/11/19 17:11,507
6/11/19 17:11,505
6/11/19 17:11,502
6/11/19 17:11,502
6/11/19 17:11,502
6/11/19 17:11,504
6/11/19 17:11,503
6/11/19 17:11,503
6/11/19 17:11,528
6/11/19 17:11,598
6/11/19 17:11,481
6/11/19 17:11,496
6/11/19 17:11,505
6/11/19 17:11,514
6/11/19 17:11,501
6/11/19 17:11,496
6/11/19 17:11,480
6/11/19 17:11,470
6/11/19 17:11,478
6/11/19 17:11,479
6/11/19 17:11,469
6/11/19 17:11,472
6/11/19 17:11,478
6/11/19 17:11,485
6/11/19 17:11,490
6/11/19 17:11,497
6/11/19 17:11,501
6/11/19 17:11,508
6/11/19 17:11,511
6/11/19 17:11,488
6/11/19 17:11,524
6/11/19 17:11,539
6/11/19 17:11,539
6/11/19 17:11,535
6/11/19 17:11,532
6/11/19 17:11,528
6/11/19 17:11,524
6/11/19 17:11,522
6/11/19 17:11,518
6/11/19 17:11,516
6/11/19 17:11,510
6/11/19 17:11,509
6/11/19 17:11,506
6/11/19 17:11,504
6/11/19 17:11,504
6/11/19 17:11,502
6/11/19 17:11,490
6/11/19 17:11,504
6/11/19 17:11,505
6/11/19 17:11,493
6/11/19 17:11,498
6/11/19 17:11,510
6/11/19 17:11,509
6/11/19 17:11,506
6/11/19 17:11,502
6/11/19 17:11,500
6/11/19 17:11,500
6/11/19 17:11,499
6/11/19 17:11,500
6/11/19 17:11,499
6/11/19 17:11,499
6/11/19 17:11,499
6/11/19 17:11,500
6/11/19 17:11,499
6/11/19 17:11,501
6/11/19 17:11,500
6/11/19 17:11,502
6/11/19 17:11,502
6/11/19 17:11,503
6/11/19 17:11,502
6/11/19 17:11,502
6/11/19 17:11,504
6/11/19 17:11,503
6/11/19 17:11,469
6/11/19 17:11,508
6/11/19 17:11,518
6/11/19 17:11,558
6/11/19 17:11,618
6/11/19 17:11,497
6/11/19 17:11,492
6/11/19 17:11,485
6/11/19 17:11,499
6/11/19 17:11,475
6/11/19 17:11,475
6/11/19 17:11,481
6/11/19 17:11,481
6/11/19 17:11,485
6/11/19 17:11,488
6/11/19 17:11,488
6/11/19 17:11,490
6/11/19 17:11,490
6/11/19 17:11,493
6/11/19 17:11,495
6/11/19 17:11,496
6/11/19 17:11,489
6/11/19 17:11,507
6/11/19 17:11,501
6/11/19 17:11,524
6/11/19 17:11,529
6/11/19 17:11,529
6/11/19 17:11,526
6/11/19 17:11,525
6/11/19 17:11,522
6/11/19 17:11,520
6/11/19 17:11,519
6/11/19 17:11,515
6/11/19 17:11,514
6/11/19 17:11,511
6/11/19 17:11,509
6/11/19 17:11,508
6/11/19 17:11,506
6/11/19 17:11,503
6/11/19 17:11,503
6/11/19 17:11,505
6/11/19 17:11,502
6/11/19 17:11,497
6/11/19 17:11,507
6/11/19 17:11,504
6/11/19 17:11,505
6/11/19 17:11,505
6/11/19 17:11,501
6/11/19 17:11,483
6/11/19 17:11,505
6/11/19 17:11,509
6/11/19 17:11,506
6/11/19 17:11,505
6/11/19 17:11,504
6/11/19 17:11,503
6/11/19 17:11,502
6/11/19 17:11,500
6/11/19 17:11,500
6/11/19 17:11,503
6/11/19 17:11,501
6/11/19 17:11,501
6/11/19 17:11,502
6/11/19 17:11,503
6/11/19 17:11,503
6/11/19 17:11,501
6/11/19 17:11,503
6/11/19 17:11,503
6/11/19 17:11,523
6/11/19 17:11,590
6/11/19 17:11,502
6/11/19 17:11,478
6/11/19 17:11,489
6/11/19 17:11,500
6/11/19 17:11,473
6/11/19 17:11,473
6/11/19 17:11,490
6/11/19 17:11,495
6/11/19 17:11,492
6/11/19 17:11,493
6/11/19 17:11,493
6/11/19 17:11,493
6/11/19 17:11,494
6/11/19 17:11,493
6/11/19 17:11,496
6/11/19 17:11,497
6/11/19 17:11,501
6/11/19 17:11,504
6/11/19 17:11,480
6/11/19 17:11,522
6/11/19 17:11,529
6/11/19 17:11,528
6/11/19 17:11,527
6/11/19 17:11,524
6/11/19 17:11,524
6/11/19 17:11,519
6/11/19 17:11,516
6/11/19 17:11,515
6/11/19 17:11,511
6/11/19 17:11,510
6/11/19 17:11,507
6/11/19 17:11,507
6/11/19 17:11,505
6/11/19 17:11,503
6/11/19 17:11,503
6/11/19 17:11,505
6/11/19 17:11,502
6/11/19 17:11,499
6/11/19 17:11,493
6/11/19 17:11,508
6/11/19 17:11,507
6/11/19 17:11,493
6/11/19 17:11,505
6/11/19 17:11,508
6/11/19 17:11,508
6/11/19 17:11,504
6/11/19 17:11,504
6/11/19 17:11,501
6/11/19 17:11,501
6/11/19 17:11,501
6/11/19 17:11,501
6/11/19 17:11,502
6/11/19 17:11,501
6/11/19 17:11,501
6/11/19 17:11,501
6/11/19 17:11,501
6/11/19 17:11,503
6/11/19 17:11,502
6/11/19 17:11,503
6/11/19 17:11,502
6/11/19 17:11,522
6/11/19 17:11,580
6/11/19 17:11,506
6/11/19 17:11,470
6/11/19 17:11,497
6/11/19 17:11,501
6/11/19 17:11,495
6/11/19 17:11,485
6/11/19 17:11,500
6/11/19 17:11,487
6/11/19 17:11,482
6/11/19 17:11,489
6/11/19 17:11,478
6/11/19 17:11,477
6/11/19 17:11,481
6/11/19 17:11,486
6/11/19 17:11,492
6/11/19 17:11,497
6/11/19 17:11,501
6/11/19 17:11,505
6/11/19 17:11,510
6/11/19 17:11,516
6/11/19 17:11,519
6/11/19 17:11,522
6/11/19 17:11,523
6/11/19 17:11,526
6/11/19 17:11,527
6/11/19 17:11,526
6/11/19 17:11,523
6/11/19 17:11,519
6/11/19 17:11,518
6/11/19 17:11,515
6/11/19 17:11,511
6/11/19 17:11,511
6/11/19 17:11,508
6/11/19 17:11,507
6/11/19 17:11,506
6/11/19 17:11,504
6/11/19 17:11,506
6/11/19 17:11,504
6/11/19 17:11,500
6/11/19 17:11,492
6/11/19 17:11,505
6/11/19 17:11,506
6/11/19 17:11,490
6/11/19 17:11,504
6/11/19 17:11,509
6/11/19 17:11,507
6/11/19 17:11,504
6/11/19 17:11,503
6/11/19 17:11,501
6/11/19 17:11,502
6/11/19 17:11,497
6/11/19 17:11,502
6/11/19 17:11,500
6/11/19 17:11,500
6/11/19 17:11,500
6/11/19 17:11,500
6/11/19 17:11,502
6/11/19 17:11,501
6/11/19 17:11,501
6/11/19 17:11,502
6/11/19 17:11,503
6/11/19 17:11,494
6/11/19 17:11,495
6/11/19 17:11,511
6/11/19 17:11,513
6/11/19 17:11,510
6/11/19 17:11,537
6/11/19 17:11,605
6/11/19 17:11,493
6/11/19 17:11,492
6/11/19 17:11,510
6/11/19 17:11,502
6/11/19 17:11,471
6/11/19 17:11,484
6/11/19 17:11,481
6/11/19 17:11,481
6/11/19 17:11,483
6/11/19 17:11,482
6/11/19 17:11,487
6/11/19 17:11,487
6/11/19 17:11,487
6/11/19 17:11,490
6/11/19 17:11,491
6/11/19 17:11,496
6/11/19 17:11,500
6/11/19 17:11,505
6/11/19 17:11,510
6/11/19 17:11,504
6/11/19 17:11,520
6/11/19 17:11,525
6/11/19 17:11,527
6/11/19 17:11,524
6/11/19 17:11,523
6/11/19 17:11,521
6/11/19 17:11,521
6/11/19 17:11,516
6/11/19 17:11,515
6/11/19 17:11,514
6/11/19 17:11,512
6/11/19 17:11,509
6/11/19 17:11,507
6/11/19 17:11,505
6/11/19 17:11,488
6/11/19 17:11,499
6/11/19 17:11,516
6/11/19 17:11,516
6/11/19 17:11,514
6/11/19 17:11,508
6/11/19 17:11,506
6/11/19 17:11,501
6/11/19 17:11,501
6/11/19 17:11,500
6/11/19 17:11,496
6/11/19 17:11,498
6/11/19 17:11,497
6/11/19 17:11,498
6/11/19 17:11,502
6/11/19 17:11,499
6/11/19 17:11,502
6/11/19 17:11,502
6/11/19 17:11,501
6/11/19 17:11,502
6/11/19 17:11,502
6/11/19 17:11,505
6/11/19 17:11,504
6/11/19 17:11,502
6/11/19 17:11,502
6/11/19 17:11,503
6/11/19 17:11,504
6/11/19 17:11,560
6/11/19 17:11,588
6/11/19 17:11,483
6/11/19 17:11,503
6/11/19 17:11,498
6/11/19 17:11,488
6/11/19 17:11,473
6/11/19 17:11,490
6/11/19 17:11,481
6/11/19 17:11,481
6/11/19 17:11,484
6/11/19 17:11,488
6/11/19 17:11,489
6/11/19 17:11,493
6/11/19 17:11,494
6/11/19 17:11,494
6/11/19 17:11,499
6/11/19 17:11,500
6/11/19 17:11,506
6/11/19 17:11,508
6/11/19 17:11,511
6/11/19 17:11,515
6/11/19 17:11,519
6/11/19 17:11,520
6/11/19 17:11,520
6/11/19 17:11,520
6/11/19 17:11,520
6/11/19 17:11,518
6/11/19 17:11,518
6/11/19 17:11,516
6/11/19 17:11,513
6/11/19 17:11,511
6/11/19 17:11,508
6/11/19 17:11,508
6/11/19 17:11,494
6/11/19 17:11,502
6/11/19 17:11,513
6/11/19 17:11,511
6/11/19 17:11,510
6/11/19 17:11,509
6/11/19 17:11,503
6/11/19 17:11,502
6/11/19 17:11,501
6/11/19 17:11,502
6/11/19 17:11,499
6/11/19 17:11,486
6/11/19 17:11,500
6/11/19 17:11,506
6/11/19 17:11,506
6/11/19 17:11,503
6/11/19 17:11,502
6/11/19 17:11,503
6/11/19 17:11,503
6/11/19 17:11,501
6/11/19 17:11,497
6/11/19 17:11,490
6/11/19 17:11,507
6/11/19 17:11,509
6/11/19 17:11,509
6/11/19 17:11,507
6/11/19 17:11,505
6/11/19 17:11,504
6/11/19 17:11,502
6/11/19 17:11,503
6/11/19 17:11,544
6/11/19 17:11,587
6/11/19 17:11,490
6/11/19 17:11,496
6/11/19 17:11,507
6/11/19 17:11,497
6/11/19 17:11,499
6/11/19 17:11,486
6/11/19 17:11,484
6/11/19 17:11,473
6/11/19 17:11,470
6/11/19 17:11,472
6/11/19 17:11,479
6/11/19 17:11,467
6/11/19 17:11,492
6/11/19 17:11,500
6/11/19 17:11,501
6/11/19 17:11,503
6/11/19 17:11,505
6/11/19 17:11,508
6/11/19 17:11,511
6/11/19 17:11,515
6/11/19 17:11,520
6/11/19 17:11,521
6/11/19 17:11,522
6/11/19 17:11,522
6/11/19 17:11,521
6/11/19 17:11,521
6/11/19 17:11,519
6/11/19 17:11,517
6/11/19 17:11,515
6/11/19 17:11,513
6/11/19 17:11,515
6/11/19 17:11,509
6/11/19 17:11,508
6/11/19 17:11,505
6/11/19 17:11,504
6/11/19 17:11,506
6/11/19 17:11,506
6/11/19 17:11,503
6/11/19 17:11,502
6/11/19 17:11,502
6/11/19 17:11,501
6/11/19 17:11,501
6/11/19 17:11,500
6/11/19 17:11,500
6/11/19 17:11,501
6/11/19 17:11,500
6/11/19 17:11,499
6/11/19 17:11,498
6/11/19 17:11,478
6/11/19 17:11,499
6/11/19 17:11,514
6/11/19 17:11,514
6/11/19 17:11,513
6/11/19 17:11,508
6/11/19 17:11,506
6/11/19 17:11,504
6/11/19 17:11,501
6/11/19 17:11,502
6/11/19 17:11,503
6/11/19 17:11,502
6/11/19 17:11,501
6/11/19 17:11,500
6/11/19 17:11,503
6/11/19 17:11,503
6/11/19 17:11,506
6/11/19 17:11,580
6/11/19 17:11,577
6/11/19 17:11,474
6/11/19 17:11,499
6/11/19 17:11,504
6/11/19 17:11,496
6/11/19 17:11,481
6/11/19 17:11,475
6/11/19 17:11,477
6/11/19 17:11,481
6/11/19 17:11,484
6/11/19 17:20,502
6/11/19 17:20,502
6/11/19 17:20,498
6/11/19 17:20,498
6/11/19 17:20,498
6/11/19 17:20,497
6/11/19 17:20,498
6/11/19 17:20,498
6/11/19 17:20,495
6/11/19 17:20,484
6/11/19 17:20,502
6/11/19 17:20,506
6/11/19 17:20,507
6/11/19 17:20,504
6/11/19 17:20,504
6/11/19 17:20,503
6/11/19 17:20,501
6/11/19 17:20,501
6/11/19 17:20,503
6/11/19 17:20,503
6/11/19 17:20,503
6/11/19 17:20,501
6/11/19 17:20,501
6/11/19 17:20,503
6/11/19 17:20,503
6/11/19 17:20,502
6/11/19 17:20,507
6/11/19 17:20,596
6/11/19 17:20,526
6/11/19 17:20,459
6/11/19 17:20,485
6/11/19 17:20,501
6/11/19 17:20,511
6/11/19 17:20,500
6/11/19 17:20,491
6/11/19 17:20,489
6/11/19 17:20,480
6/11/19 17:20,471
6/11/19 17:20,475
6/11/19 17:20,480
6/11/19 17:20,485
6/11/19 17:20,489
6/11/19 17:20,490
6/11/19 17:20,493
6/11/19 17:20,497
6/11/19 17:20,501
6/11/19 17:20,507
6/11/19 17:20,511
6/11/19 17:20,516
6/11/19 17:20,517
6/11/19 17:20,521
6/11/19 17:20,524
6/11/19 17:20,523
6/11/19 17:20,525
6/11/19 17:20,523
6/11/19 17:20,507
6/11/19 17:20,507
6/11/19 17:20,526
6/11/19 17:20,528
6/11/19 17:20,521
6/11/19 17:20,517
6/11/19 17:20,512
6/11/19 17:20,509
6/11/19 17:20,507
6/11/19 17:20,505
6/11/19 17:20,504
6/11/19 17:20,502
6/11/19 17:20,499
6/11/19 17:20,501
6/11/19 17:20,497
6/11/19 17:20,500
6/11/19 17:20,500
6/11/19 17:20,501
6/11/19 17:20,499
6/11/19 17:20,483
6/11/19 17:20,484
6/11/19 17:20,507
6/11/19 17:20,511
6/11/19 17:20,512
6/11/19 17:20,508
6/11/19 17:20,507
6/11/19 17:20,506
6/11/19 17:20,503
6/11/19 17:20,503
6/11/19 17:20,502
6/11/19 17:20,503
6/11/19 17:20,500
6/11/19 17:20,499
6/11/19 17:20,485
6/11/19 17:20,491
6/11/19 17:20,511
6/11/19 17:20,515
6/11/19 17:20,513
6/11/19 17:20,509
6/11/19 17:20,516
6/11/19 17:20,604
6/11/19 17:20,521
6/11/19 17:20,475
6/11/19 17:20,499
6/11/19 17:20,509
6/11/19 17:20,484
6/11/19 17:20,481
6/11/19 17:20,476
6/11/19 17:20,476
6/11/19 17:20,475
6/11/19 17:20,481
6/11/19 17:20,483
6/11/19 17:20,468
6/11/19 17:20,487
6/11/19 17:20,493
6/11/19 17:20,483
6/11/19 17:20,492
6/11/19 17:20,506
6/11/19 17:20,511
6/11/19 17:20,511
6/11/19 17:20,516
6/11/19 17:20,516
6/11/19 17:20,520
6/11/19 17:20,522
6/11/19 17:20,522
6/11/19 17:20,523
6/11/19 17:20,521
6/11/19 17:20,520
6/11/19 17:20,519
6/11/19 17:20,516
6/11/19 17:20,514
6/11/19 17:20,511
6/11/19 17:20,510
6/11/19 17:20,510
6/11/19 17:20,507
6/11/19 17:20,507
6/11/19 17:20,504
6/11/19 17:20,504
6/11/19 17:20,505
6/11/19 17:20,504
6/11/19 17:20,502
6/11/19 17:20,502
6/11/19 17:20,502
6/11/19 17:20,501
6/11/19 17:20,501
6/11/19 17:20,502
6/11/19 17:20,502
6/11/19 17:20,502
6/11/19 17:20,483
6/11/19 17:20,488
6/11/19 17:20,512
6/11/19 17:20,516
6/11/19 17:20,512
6/11/19 17:20,512
6/11/19 17:20,506
6/11/19 17:20,504
6/11/19 17:20,502
6/11/19 17:20,503
6/11/19 17:20,487
6/11/19 17:20,502
6/11/19 17:20,489
6/11/19 17:20,510
6/11/19 17:20,514
6/11/19 17:20,514
6/11/19 17:20,590
6/11/19 17:20,568
6/11/19 17:20,478
6/11/19 17:20,488
6/11/19 17:20,513
6/11/19 17:20,480
6/11/19 17:20,478
6/11/19 17:20,485
6/11/19 17:20,472
6/11/19 17:20,473
6/11/19 17:20,475
6/11/19 17:20,482
6/11/19 17:20,486
6/11/19 17:20,490
6/11/19 17:20,481
6/11/19 17:20,483
6/11/19 17:20,498
6/11/19 17:20,513
6/11/19 17:20,517
6/11/19 17:20,519
6/11/19 17:20,518
6/11/19 17:20,521
6/11/19 17:20,519
6/11/19 17:20,520
6/11/19 17:20,520
6/11/19 17:20,518
6/11/19 17:20,520
6/11/19 17:20,518
6/11/19 17:20,516
6/11/19 17:20,513
6/11/19 17:20,513
6/11/19 17:20,493
6/11/19 17:20,507
6/11/19 17:20,499
6/11/19 17:20,519
6/11/19 17:20,519
6/11/19 17:20,516
6/11/19 17:20,509
6/11/19 17:20,507
6/11/19 17:20,505
6/11/19 17:20,503
6/11/19 17:20,501
6/11/19 17:20,500
6/11/19 17:20,500
6/11/19 17:20,498
6/11/19 17:20,497
6/11/19 17:20,500
6/11/19 17:20,499
6/11/19 17:20,498
6/11/19 17:20,499
6/11/19 17:20,500
6/11/19 17:20,502
6/11/19 17:20,502
6/11/19 17:20,503
6/11/19 17:20,501
6/11/19 17:20,502
6/11/19 17:20,494
6/11/19 17:20,499
6/11/19 17:20,507
6/11/19 17:20,496
6/11/19 17:20,502
6/11/19 17:20,514
6/11/19 17:20,512
6/11/19 17:20,511
6/11/19 17:20,538
6/11/19 17:20,598
6/11/19 17:20,495
6/11/19 17:20,487
6/11/19 17:20,502
6/11/19 17:20,483
6/11/19 17:20,505
6/11/19 17:20,497
6/11/19 17:20,481
6/11/19 17:20,481
6/11/19 17:20,471
6/11/19 17:20,467
6/11/19 17:20,473
6/11/19 17:20,481
6/11/19 17:20,487
6/11/19 17:20,487
6/11/19 17:20,495
6/11/19 17:20,497
6/11/19 17:20,499
6/11/19 17:20,504
6/11/19 17:20,509
6/11/19 17:20,514
6/11/19 17:20,518
6/11/19 17:20,522
6/11/19 17:20,522
6/11/19 17:20,524
6/11/19 17:20,525
6/11/19 17:20,525
6/11/19 17:20,522
6/11/19 17:20,519
6/11/19 17:20,516
6/11/19 17:20,499
6/11/19 17:20,510
6/11/19 17:20,518
6/11/19 17:20,518
6/11/19 17:20,513
6/11/19 17:20,509
6/11/19 17:20,494
6/11/19 17:20,508
6/11/19 17:20,511
6/11/19 17:20,507
6/11/19 17:20,506
6/11/19 17:20,502
6/11/19 17:20,503
6/11/19 17:20,499
6/11/19 17:20,499
6/11/19 17:20,498
6/11/19 17:20,498
6/11/19 17:20,488
6/11/19 17:20,493
6/11/19 17:20,507
6/11/19 17:20,509
6/11/19 17:20,506
6/11/19 17:20,505
6/11/19 17:20,504
6/11/19 17:20,503
6/11/19 17:20,502
6/11/19 17:20,502
6/11/19 17:20,503
6/11/19 17:20,486
6/11/19 17:20,502
6/11/19 17:20,507
6/11/19 17:20,507
6/11/19 17:20,504
6/11/19 17:20,506
6/11/19 17:20,504
6/11/19 17:20,505
6/11/19 17:20,576
6/11/19 17:20,593
6/11/19 17:20,481
6/11/19 17:20,493
6/11/19 17:20,492
6/11/19 17:20,490
6/11/19 17:20,485
6/11/19 17:20,480
6/11/19 17:20,489
6/11/19 17:20,479
6/11/19 17:20,474
6/11/19 17:20,463
6/11/19 17:20,490
6/11/19 17:20,496
6/11/19 17:20,498
6/11/19 17:20,493
6/11/19 17:20,491
6/11/19 17:20,504
6/11/19 17:20,507
6/11/19 17:20,512
6/11/19 17:20,513
6/11/19 17:20,515
6/11/19 17:20,518
6/11/19 17:20,519
6/11/19 17:20,522
6/11/19 17:20,521
6/11/19 17:20,522
6/11/19 17:20,518
6/11/19 17:20,516
6/11/19 17:20,496
6/11/19 17:20,510
6/11/19 17:20,526
6/11/19 17:20,524
6/11/19 17:20,519
6/11/19 17:20,514
6/11/19 17:20,509
6/11/19 17:20,505
6/11/19 17:20,503
6/11/19 17:20,502
6/11/19 17:20,502
6/11/19 17:20,502
6/11/19 17:20,502
6/11/19 17:20,501
6/11/19 17:20,499
6/11/19 17:20,501
6/11/19 17:20,499
6/11/19 17:20,498
6/11/19 17:20,497
6/11/19 17:20,499
6/11/19 17:20,499
6/11/19 17:20,501
6/11/19 17:20,502
6/11/19 17:20,501
6/11/19 17:20,499
6/11/19 17:20,484
6/11/19 17:20,501
6/11/19 17:20,503
6/11/19 17:20,514
6/11/19 17:20,513
6/11/19 17:20,513
6/11/19 17:20,509
6/11/19 17:20,508
6/11/19 17:20,505
6/11/19 17:20,503
6/11/19 17:20,503
6/11/19 17:20,514
6/11/19 17:20,588
6/11/19 17:20,509
6/11/19 17:20,478
6/11/19 17:20,493
6/11/19 17:20,494
6/11/19 17:20,481
6/11/19 17:20,482
6/11/19 17:20,486
6/11/19 17:20,483
6/11/19 17:20,472
6/11/19 17:20,468
6/11/19 17:20,470
6/11/19 17:20,493
6/11/19 17:20,504
6/11/19 17:20,503
6/11/19 17:20,505
6/11/19 17:20,503
6/11/19 17:20,505
6/11/19 17:20,505
6/11/19 17:20,507
6/11/19 17:20,513
6/11/19 17:20,515
6/11/19 17:20,518
6/11/19 17:20,521
6/11/19 17:20,520
6/11/19 17:20,520
6/11/19 17:20,521
6/11/19 17:20,518
6/11/19 17:20,516
6/11/19 17:20,514
6/11/19 17:20,514
6/11/19 17:20,510
6/11/19 17:20,510
6/11/19 17:20,509
6/11/19 17:20,508
6/11/19 17:20,505
6/11/19 17:20,504
6/11/19 17:20,503
6/11/19 17:20,487
6/11/19 17:20,506
6/11/19 17:20,509
6/11/19 17:20,509
6/11/19 17:20,505
6/11/19 17:20,504
6/11/19 17:20,502
6/11/19 17:20,501
6/11/19 17:20,500
6/11/19 17:20,501
6/11/19 17:20,500
6/11/19 17:20,501
6/11/19 17:20,492
6/11/19 17:20,497
6/11/19 17:20,506
6/11/19 17:20,493
6/11/19 17:20,503
6/11/19 17:20,512
6/11/19 17:20,510
6/11/19 17:20,509
6/11/19 17:20,506
6/11/19 17:20,505
6/11/19 17:20,503
6/11/19 17:20,502
6/11/19 17:20,503
6/11/19 17:20,501
6/11/19 17:20,530
6/11/19 17:20,593
6/11/19 17:20,493
6/11/19 17:20,479
6/11/19 17:20,510
6/11/19 17:20,492
6/11/19 17:20,493
6/11/19 17:20,493
6/11/19 17:20,474
6/11/19 17:20,468
6/11/19 17:20,472
6/11/19 17:20,478
6/11/19 17:20,482
6/11/19 17:20,487
6/11/19 17:20,488
6/11/19 17:20,463
6/11/19 17:20,496
6/11/19 17:20,510
6/11/19 17:20,513
6/11/19 17:20,516
6/11/19 17:20,518
6/11/19 17:20,517
6/11/19 17:20,519
6/11/19 17:20,521
6/11/19 17:20,519
6/11/19 17:20,521
6/11/19 17:20,521
6/11/19 17:20,520
6/11/19 17:20,518
6/11/19 17:20,517
6/11/19 17:20,516
6/11/19 17:20,513
6/11/19 17:20,511
6/11/19 17:20,507
6/11/19 17:20,479
6/11/19 17:20,513
6/11/19 17:20,518
6/11/19 17:20,516
6/11/19 17:20,513
6/11/19 17:20,509
6/11/19 17:20,506
6/11/19 17:20,504
6/11/19 17:20,502
6/11/19 17:20,500
6/11/19 17:20,498
6/11/19 17:20,498
6/11/19 17:20,499
6/11/19 17:20,497
6/11/19 17:20,499
6/11/19 17:20,498
6/11/19 17:20,498
6/11/19 17:20,499
6/11/19 17:20,501
6/11/19 17:20,502
6/11/19 17:20,502
6/11/19 17:20,503
6/11/19 17:20,504
6/11/19 17:20,503
6/11/19 17:20,494
6/11/19 17:20,480
6/11/19 17:20,509
6/11/19 17:20,517
6/11/19 17:20,516
6/11/19 17:20,511
6/11/19 17:20,508
6/11/19 17:20,508
6/11/19 17:20,588
6/11/19 17:20,571
6/11/19 17:20,475
6/11/19 17:20,494
6/11/19 17:20,500
6/11/19 17:20,490
6/11/19 17:20,502
6/11/19 17:20,486
6/11/19 17:20,477
6/11/19 17:20,481
6/11/19 17:20,469
6/11/19 17:20,468
6/11/19 17:20,473
6/11/19 17:20,480
6/11/19 17:20,487
6/11/19 17:20,462
6/11/19 17:20,492
6/11/19 17:20,511
6/11/19 17:20,514
6/11/19 17:20,518
6/11/19 17:20,506
6/11/19 17:20,519
6/11/19 17:20,531
6/11/19 17:20,529
6/11/19 17:20,530
6/11/19 17:20,526
6/11/19 17:20,525
6/11/19 17:20,523
6/11/19 17:20,518
6/11/19 17:20,516
6/11/19 17:20,514
6/11/19 17:20,512
6/11/19 17:20,510
6/11/19 17:20,507
6/11/19 17:20,505
6/11/19 17:20,504
6/11/19 17:20,504
6/11/19 17:20,505
6/11/19 17:20,498
6/11/19 17:20,493
6/11/19 17:20,509
6/11/19 17:20,509
6/11/19 17:20,494
6/11/19 17:20,506
6/11/19 17:20,510
6/11/19 17:20,505
6/11/19 17:20,504
6/11/19 17:20,502
6/11/19 17:20,502
6/11/19 17:20,501
6/11/19 17:20,499
6/11/19 17:20,500
6/11/19 17:20,479
6/11/19 17:20,505
6/11/19 17:20,505
6/11/19 17:20,500
6/11/19 17:20,509
6/11/19 17:20,510
6/11/19 17:20,509
6/11/19 17:20,507
6/11/19 17:20,505
6/11/19 17:20,484
6/11/19 17:20,502
6/11/19 17:20,511
6/11/19 17:20,508
6/11/19 17:20,496
6/11/19 17:20,507
6/11/19 17:20,509
6/11/19 17:20,510
6/11/19 17:20,600
6/11/19 17:20,545
6/11/19 17:20,480
6/11/19 17:20,481
6/11/19 17:20,486
6/11/19 17:20,491
6/11/19 17:20,482
6/11/19 17:20,470
6/11/19 17:20,471
6/11/19 17:20,477
6/11/19 17:20,485
6/11/19 17:20,489
6/11/19 17:20,491
6/11/19 17:20,493
6/11/19 17:20,496
6/11/19 17:20,497
6/11/19 17:20,478
6/11/19 17:20,504
6/11/19 17:20,499
6/11/19 17:20,517
6/11/19 17:20,525
6/11/19 17:20,524
6/11/19 17:20,528
6/11/19 17:20,524
6/11/19 17:20,524
6/11/19 17:20,521
6/11/19 17:20,518
6/11/19 17:20,519
6/11/19 17:20,513
6/11/19 17:20,512
6/11/19 17:20,511
6/11/19 17:20,508
6/11/19 17:20,508
6/11/19 17:20,506
6/11/19 17:20,503
6/11/19 17:20,504
6/11/19 17:20,505
6/11/19 17:20,505
6/11/19 17:20,505
6/11/19 17:20,489
6/11/19 17:20,501
6/11/19 17:20,506
6/11/19 17:20,507
6/11/19 17:20,505
6/11/19 17:20,503
6/11/19 17:29,504
6/11/19 17:29,504
6/11/19 17:29,498
6/11/19 17:29,500
6/11/19 17:29,495
6/11/19 17:29,497
6/11/19 17:29,500
6/11/19 17:29,496
6/11/19 17:29,499
6/11/19 17:29,497
6/11/19 17:29,500
6/11/19 17:29,499
6/11/19 17:29,497
6/11/19 17:29,502
6/11/19 17:29,482
6/11/19 17:29,503
6/11/19 17:29,508
6/11/19 17:29,504
6/11/19 17:29,508
6/11/19 17:29,504
6/11/19 17:29,504
6/11/19 17:29,489
6/11/19 17:29,569
6/11/19 17:29,607
6/11/19 17:29,483
6/11/19 17:29,490
6/11/19 17:29,503
6/11/19 17:29,491
6/11/19 17:29,494
6/11/19 17:29,481
6/11/19 17:29,483
6/11/19 17:29,479
6/11/19 17:29,472
6/11/19 17:29,465
6/11/19 17:29,477
6/11/19 17:29,493
6/11/19 17:29,497
6/11/19 17:29,496
6/11/19 17:29,500
6/11/19 17:29,497
6/11/19 17:29,503
6/11/19 17:29,504
6/11/19 17:29,508
6/11/19 17:29,514
6/11/19 17:29,516
6/11/19 17:29,523
6/11/19 17:29,522
6/11/19 17:29,521
6/11/19 17:29,526
6/11/19 17:29,520
6/11/19 17:29,523
6/11/19 17:29,519
6/11/19 17:29,517
6/11/19 17:29,516
6/11/19 17:29,510
6/11/19 17:29,493
6/11/19 17:29,496
6/11/19 17:29,519
6/11/19 17:29,521
6/11/19 17:29,515
6/11/19 17:29,513
6/11/19 17:29,506
6/11/19 17:29,503
6/11/19 17:29,504
6/11/19 17:29,499
6/11/19 17:29,502
6/11/19 17:29,499
6/11/19 17:29,499
6/11/19 17:29,499
6/11/19 17:29,498
6/11/19 17:29,502
6/11/19 17:29,500
6/11/19 17:29,499
6/11/19 17:29,502
6/11/19 17:29,501
6/11/19 17:29,503
6/11/19 17:29,501
6/11/19 17:29,500
6/11/19 17:29,503
6/11/19 17:29,500
6/11/19 17:29,505
6/11/19 17:29,501
6/11/19 17:29,503
6/11/19 17:29,507
6/11/19 17:29,501
6/11/19 17:29,505
6/11/19 17:29,501
6/11/19 17:29,533
6/11/19 17:29,618
6/11/19 17:29,494
6/11/19 17:29,491
6/11/19 17:29,482
6/11/19 17:29,486
6/11/19 17:29,495
6/11/19 17:29,504
6/11/19 17:29,494
6/11/19 17:29,481
6/11/19 17:29,483
6/11/19 17:29,483
6/11/19 17:29,482
6/11/19 17:29,487
6/11/19 17:29,483
6/11/19 17:29,488
6/11/19 17:29,489
6/11/19 17:29,475
6/11/19 17:29,499
6/11/19 17:29,506
6/11/19 17:29,514
6/11/19 17:29,516
6/11/19 17:29,517
6/11/19 17:29,522
6/11/19 17:29,518
6/11/19 17:29,522
6/11/19 17:29,523
6/11/19 17:29,522
6/11/19 17:29,521
6/11/19 17:29,501
6/11/19 17:29,523
6/11/19 17:29,521
6/11/19 17:29,518
6/11/19 17:29,517
6/11/19 17:29,510
6/11/19 17:29,511
6/11/19 17:29,507
6/11/19 17:29,503
6/11/19 17:29,504
6/11/19 17:29,501
6/11/19 17:29,488
6/11/19 17:29,502
6/11/19 17:29,507
6/11/19 17:29,508
6/11/19 17:29,503
6/11/19 17:29,506
6/11/19 17:29,500
6/11/19 17:29,501
6/11/19 17:29,501
6/11/19 17:29,496
6/11/19 17:29,502
6/11/19 17:29,498
6/11/19 17:29,488
6/11/19 17:29,509
6/11/19 17:29,507
6/11/19 17:29,511
6/11/19 17:29,506
6/11/19 17:29,506
6/11/19 17:29,505
6/11/19 17:29,501
6/11/19 17:29,505
6/11/19 17:29,502
6/11/19 17:29,502
6/11/19 17:29,503
6/11/19 17:29,517
6/11/19 17:29,598
6/11/19 17:29,505
6/11/19 17:29,475
6/11/19 17:29,489
6/11/19 17:29,500
6/11/19 17:29,477
6/11/19 17:29,481
6/11/19 17:29,485
6/11/19 17:29,477
6/11/19 17:29,463
6/11/19 17:29,480
6/11/19 17:29,490
6/11/19 17:29,495
6/11/19 17:29,480
6/11/19 17:29,495
6/11/19 17:29,506
6/11/19 17:29,504
6/11/19 17:29,506
6/11/19 17:29,509
6/11/19 17:29,509
6/11/19 17:29,516
6/11/19 17:29,514
6/11/19 17:29,519
6/11/19 17:29,519
6/11/19 17:29,520
6/11/19 17:29,522
6/11/19 17:29,519
6/11/19 17:29,519
6/11/19 17:29,487
6/11/19 17:29,517
6/11/19 17:29,529
6/11/19 17:29,523
6/11/19 17:29,519
6/11/19 17:29,514
6/11/19 17:29,508
6/11/19 17:29,508
6/11/19 17:29,503
6/11/19 17:29,504
6/11/19 17:29,502
6/11/19 17:29,500
6/11/19 17:29,499
6/11/19 17:29,497
6/11/19 17:29,500
6/11/19 17:29,497
6/11/19 17:29,498
6/11/19 17:29,500
6/11/19 17:29,499
6/11/19 17:29,502
6/11/19 17:29,500
6/11/19 17:29,500
6/11/19 17:29,502
6/11/19 17:29,499
6/11/19 17:29,504
6/11/19 17:29,500
6/11/19 17:29,503
6/11/19 17:29,503
6/11/19 17:29,500
6/11/19 17:29,506
6/11/19 17:29,503
6/11/19 17:29,504
6/11/19 17:29,503
6/11/19 17:29,531
6/11/19 17:29,609
6/11/19 17:29,498
6/11/19 17:29,488
6/11/19 17:29,515
6/11/19 17:29,477
6/11/19 17:29,462
6/11/19 17:29,481
6/11/19 17:29,497
6/11/19 17:29,488
6/11/19 17:29,479
6/11/19 17:29,484
6/11/19 17:29,485
6/11/19 17:29,483
6/11/19 17:29,488
6/11/19 17:29,498
6/11/19 17:29,505
6/11/19 17:29,502
6/11/19 17:29,507
6/11/19 17:29,510
6/11/19 17:29,511
6/11/19 17:29,510
6/11/19 17:29,507
6/11/19 17:29,527
6/11/19 17:29,527
6/11/19 17:29,526
6/11/19 17:29,527
6/11/19 17:29,519
6/11/19 17:29,520
6/11/19 17:29,517
6/11/19 17:29,513
6/11/19 17:29,514
6/11/19 17:29,507
6/11/19 17:29,509
6/11/19 17:29,506
6/11/19 17:29,502
6/11/19 17:29,507
6/11/19 17:29,502
6/11/19 17:29,502
6/11/19 17:29,501
6/11/19 17:29,501
6/11/19 17:29,503
6/11/19 17:29,498
6/11/19 17:29,502
6/11/19 17:29,501
6/11/19 17:29,501
6/11/19 17:29,503
6/11/19 17:29,500
6/11/19 17:29,502
6/11/19 17:29,502
6/11/19 17:29,501
6/11/19 17:29,502
6/11/19 17:29,471
6/11/19 17:29,509
6/11/19 17:29,517
6/11/19 17:29,512
6/11/19 17:29,512
6/11/19 17:29,507
6/11/19 17:29,507
6/11/19 17:29,503
6/11/19 17:29,503
6/11/19 17:29,570
6/11/19 17:29,594
6/11/19 17:29,475
6/11/19 17:29,485
6/11/19 17:29,497
6/11/19 17:29,504
6/11/19 17:29,491
6/11/19 17:29,489
6/11/19 17:29,484
6/11/19 17:29,472
6/11/19 17:29,473
6/11/19 17:29,473
6/11/19 17:29,481
6/11/19 17:29,481
6/11/19 17:29,486
6/11/19 17:29,490
6/11/19 17:29,490
6/11/19 17:29,496
6/11/19 17:29,499
6/11/19 17:29,505
6/11/19 17:29,494
6/11/19 17:29,513
6/11/19 17:29,525
6/11/19 17:29,525
6/11/19 17:29,519
6/11/19 17:29,522
6/11/19 17:29,532
6/11/19 17:29,533
6/11/19 17:29,525
6/11/19 17:29,524
6/11/19 17:29,520
6/11/19 17:29,514
6/11/19 17:29,515
6/11/19 17:29,508
6/11/19 17:29,508
6/11/19 17:29,506
6/11/19 17:29,491
6/11/19 17:29,501
6/11/19 17:29,507
6/11/19 17:29,510
6/11/19 17:29,506
6/11/19 17:29,502
6/11/19 17:29,504
6/11/19 17:29,500
6/11/19 17:29,501
6/11/19 17:29,501
6/11/19 17:29,498
6/11/19 17:29,501
6/11/19 17:29,498
6/11/19 17:29,502
6/11/19 17:29,501
6/11/19 17:29,500
6/11/19 17:29,484
6/11/19 17:29,501
6/11/19 17:29,512
6/11/19 17:29,508
6/11/19 17:29,507
6/11/19 17:29,508
6/11/19 17:29,502
6/11/19 17:29,504
6/11/19 17:29,501
6/11/19 17:29,495
6/11/19 17:29,499
6/11/19 17:29,506
6/11/19 17:29,510
6/11/19 17:29,506
6/11/19 17:29,550
6/11/19 17:29,616
6/11/19 17:29,490
6/11/19 17:29,484
6/11/19 17:29,490
6/11/19 17:29,486
6/11/19 17:29,479
6/11/19 17:29,477
6/11/19 17:29,482
6/11/19 17:29,472
6/11/19 17:29,469
6/11/19 17:29,474
6/11/19 17:29,493
6/11/19 17:29,499
6/11/19 17:29,498
6/11/19 17:29,500
6/11/19 17:29,499
6/11/19 17:29,498
6/11/19 17:29,503
6/11/19 17:29,503
6/11/19 17:29,509
6/11/19 17:29,514
6/11/19 17:29,515
6/11/19 17:29,521
6/11/19 17:29,503
6/11/19 17:29,521
6/11/19 17:29,526
6/11/19 17:29,524
6/11/19 17:29,525
6/11/19 17:29,519
6/11/19 17:29,517
6/11/19 17:29,516
6/11/19 17:29,511
6/11/19 17:29,510
6/11/19 17:29,487
6/11/19 17:29,508
6/11/19 17:29,513
6/11/19 17:29,510
6/11/19 17:29,509
6/11/19 17:29,504
6/11/19 17:29,506
6/11/19 17:29,502
6/11/19 17:29,499
6/11/19 17:29,502
6/11/19 17:29,498
6/11/19 17:29,499
6/11/19 17:29,499
6/11/19 17:29,499
6/11/19 17:29,502
6/11/19 17:29,498
6/11/19 17:29,503
6/11/19 17:29,501
6/11/19 17:29,501
6/11/19 17:29,504
6/11/19 17:29,482
6/11/19 17:29,504
6/11/19 17:29,493
6/11/19 17:29,506
6/11/19 17:29,515
6/11/19 17:29,511
6/11/19 17:29,511
6/11/19 17:29,506
6/11/19 17:29,505
6/11/19 17:29,521
6/11/19 17:29,586
6/11/19 17:29,511
6/11/19 17:29,476
6/11/19 17:29,493
6/11/19 17:29,495
6/11/19 17:29,484
6/11/19 17:29,487
6/11/19 17:29,476
6/11/19 17:29,481
6/11/19 17:29,478
6/11/19 17:29,471
6/11/19 17:29,480
6/11/19 17:29,483
6/11/19 17:29,486
6/11/19 17:29,491
6/11/19 17:29,492
6/11/19 17:29,499
6/11/19 17:29,500
6/11/19 17:29,506
6/11/19 17:29,512
6/11/19 17:29,514
6/11/19 17:29,521
6/11/19 17:29,520
6/11/19 17:29,524
6/11/19 17:29,526
6/11/19 17:29,523
6/11/19 17:29,507
6/11/19 17:29,507
6/11/19 17:29,532
6/11/19 17:29,533
6/11/19 17:29,525
6/11/19 17:29,523
6/11/19 17:29,512
6/11/19 17:29,510
6/11/19 17:29,509
6/11/19 17:29,504
6/11/19 17:29,505
6/11/19 17:29,500
6/11/19 17:29,502
6/11/19 17:29,502
6/11/19 17:29,498
6/11/19 17:29,500
6/11/19 17:29,495
6/11/19 17:29,498
6/11/19 17:29,499
6/11/19 17:29,498
6/11/19 17:29,501
6/11/19 17:29,500
6/11/19 17:29,502
6/11/19 17:29,502
6/11/19 17:29,500
6/11/19 17:29,503
6/11/19 17:29,502
6/11/19 17:29,503
6/11/19 17:29,502
6/11/19 17:29,501
6/11/19 17:29,487
6/11/19 17:29,486
6/11/19 17:29,514
6/11/19 17:29,515
6/11/19 17:29,513
6/11/19 17:29,515
6/11/19 17:29,506
6/11/19 17:29,508
6/11/19 17:29,505
6/11/19 17:29,574
6/11/19 17:29,601
6/11/19 17:29,477
6/11/19 17:29,491
6/11/19 17:29,493
6/11/19 17:29,498
6/11/19 17:29,485
6/11/19 17:29,470
6/11/19 17:29,481
6/11/19 17:29,469
6/11/19 17:29,452
6/11/19 17:29,479
6/11/19 17:29,488
6/11/19 17:29,495
6/11/19 17:29,494
6/11/19 17:29,495
6/11/19 17:29,492
6/11/19 17:29,493
6/11/19 17:29,514
6/11/19 17:29,493
6/11/19 17:29,518
6/11/19 17:29,529
6/11/19 17:29,525
6/11/19 17:29,530
6/11/19 17:29,524
6/11/19 17:29,522
6/11/19 17:29,521
6/11/19 17:29,516
6/11/19 17:29,519
6/11/19 17:29,513
6/11/19 17:29,514
6/11/19 17:29,513
6/11/19 17:29,509
6/11/19 17:29,509
6/11/19 17:29,505
6/11/19 17:29,506
6/11/19 17:29,503
6/11/19 17:29,502
6/11/19 17:29,505
6/11/19 17:29,500
6/11/19 17:29,503
6/11/19 17:29,502
6/11/19 17:29,500
6/11/19 17:29,501
6/11/19 17:29,499
6/11/19 17:29,501
6/11/19 17:29,502
6/11/19 17:29,501
6/11/19 17:29,504
6/11/19 17:29,501
6/11/19 17:29,504
6/11/19 17:29,503
6/11/19 17:29,486
6/11/19 17:29,507
6/11/19 17:29,507
6/11/19 17:29,510
6/11/19 17:29,506
6/11/19 17:29,503
6/11/19 17:29,504
6/11/19 17:29,501
6/11/19 17:29,503
6/11/19 17:29,564
6/11/19 17:29,587
6/11/19 17:29,481
6/11/19 17:29,493
6/11/19 17:29,515
6/11/19 17:29,501
6/11/19 17:29,494
6/11/19 17:29,490
6/11/19 17:29,473
6/11/19 17:29,472
6/11/19 17:29,474
6/11/19 17:29,479
6/11/19 17:29,468
6/11/19 17:29,486
6/11/19 17:29,491
6/11/19 17:29,486
6/11/19 17:29,502
6/11/19 17:29,505
6/11/19 17:29,503
6/11/19 17:29,510
6/11/19 17:29,511
6/11/19 17:29,512
6/11/19 17:29,518
6/11/19 17:29,517
6/11/19 17:29,523
6/11/19 17:29,520
6/11/19 17:29,522
6/11/19 17:29,523
6/11/19 17:29,516
6/11/19 17:29,518
6/11/19 17:29,496
6/11/19 17:29,501
6/11/19 17:29,523
6/11/19 17:29,520
6/11/19 17:29,521
6/11/19 17:29,514
6/11/19 17:29,511
6/11/19 17:29,508
6/11/19 17:29,503
6/11/19 17:29,504
6/11/19 17:29,499
6/11/19 17:29,500
6/11/19 17:29,499
6/11/19 17:29,495
6/11/19 17:29,501
6/11/19 17:29,485
6/11/19 17:29,499
6/11/19 17:29,507
6/11/19 17:29,506
6/11/19 17:29,507
6/11/19 17:29,501
6/11/19 17:29,503
6/11/19 17:29,503
6/11/19 17:29,491
6/11/19 17:29,497
6/11/19 17:29,506
6/11/19 17:29,510
6/11/19 17:29,507
6/11/19 17:29,504
6/11/19 17:29,506
6/11/19 17:29,501
6/11/19 17:29,503
6/11/19 17:29,503
6/11/19 17:29,554
6/11/19 17:29,612
6/11/19 17:29,481
6/11/19 17:29,483
6/11/19 17:29,503
6/11/19 17:29,483
6/11/19 17:29,476
6/11/19 17:38,514
6/11/19 17:38,514
6/11/19 17:38,519
6/11/19 17:38,520
6/11/19 17:38,516
6/11/19 17:38,527
6/11/19 17:38,529
6/11/19 17:38,531
6/11/19 17:38,524
6/11/19 17:38,526
6/11/19 17:38,519
6/11/19 17:38,518
6/11/19 17:38,517
6/11/19 17:38,511
6/11/19 17:38,511
6/11/19 17:38,506
6/11/19 17:38,503
6/11/19 17:38,503
6/11/19 17:38,503
6/11/19 17:38,505
6/11/19 17:38,501
6/11/19 17:38,503
6/11/19 17:38,502
6/11/19 17:38,499
6/11/19 17:38,501
6/11/19 17:38,497
6/11/19 17:38,499
6/11/19 17:38,502
6/11/19 17:38,497
6/11/19 17:38,499
6/11/19 17:38,497
6/11/19 17:38,499
6/11/19 17:38,502
6/11/19 17:38,500
6/11/19 17:38,503
6/11/19 17:38,500
6/11/19 17:38,500
6/11/19 17:38,502
6/11/19 17:38,500
6/11/19 17:38,505
6/11/19 17:38,503
6/11/19 17:38,505
6/11/19 17:38,503
6/11/19 17:38,503
6/11/19 17:38,504
6/11/19 17:38,502
6/11/19 17:38,505
6/11/19 17:38,503
6/11/19 17:38,502
6/11/19 17:38,507
6/11/19 17:38,504
6/11/19 17:38,594
6/11/19 17:38,585
6/11/19 17:38,467
6/11/19 17:38,500
6/11/19 17:38,499
6/11/19 17:38,480
6/11/19 17:38,494
6/11/19 17:38,484
6/11/19 17:38,479
6/11/19 17:38,485
6/11/19 17:38,479
6/11/19 17:38,471
6/11/19 17:38,464
6/11/19 17:38,473
6/11/19 17:38,480
