X,Bin ECG
5/24/19 14:39,529
5/24/19 14:39,514
5/24/19 14:39,515
5/24/19 14:39,476
5/24/19 14:39,534
5/24/19 14:39,481
5/24/19 14:39,518
5/24/19 14:39,512
5/24/19 14:39,482
5/24/19 14:39,535
5/24/19 14:39,477
5/24/19 14:39,519
5/24/19 14:39,513
5/24/19 14:39,483
5/24/19 14:39,534
5/24/19 14:39,476
5/24/19 14:39,459
5/24/19 14:39,529
5/24/19 14:39,493
5/24/19 14:39,543
5/24/19 14:39,489
5/24/19 14:39,533
5/24/19 14:39,510
5/24/19 14:39,482
5/24/19 14:39,520
5/24/19 14:39,464
5/24/19 14:39,515
5/24/19 14:39,503
5/24/19 14:39,491
5/24/19 14:39,538
5/24/19 14:39,479
5/24/19 14:39,531
5/24/19 14:39,507
5/24/19 14:39,493
5/24/19 14:39,537
5/24/19 14:39,479
5/24/19 14:39,531
5/24/19 14:39,503
5/24/19 14:39,495
5/24/19 14:39,533
5/24/19 14:39,476
5/24/19 14:39,523
5/24/19 14:39,495
5/24/19 14:39,494
5/24/19 14:39,533
5/24/19 14:39,476
5/24/19 14:39,532
5/24/19 14:39,495
5/24/19 14:39,495
5/24/19 14:39,528
5/24/19 14:39,473
5/24/19 14:39,531
5/24/19 14:39,492
5/24/19 14:39,492
5/24/19 14:39,528
5/24/19 14:39,477
5/24/19 14:39,536
5/24/19 14:39,494
5/24/19 14:39,500
5/24/19 14:39,527
5/24/19 14:39,475
5/24/19 14:39,525
5/24/19 14:39,471
5/24/19 14:39,517
5/24/19 14:39,537
5/24/19 14:39,475
5/24/19 14:39,542
5/24/19 14:39,496
5/24/19 14:39,502
5/24/19 14:39,521
5/24/19 14:39,470
5/24/19 14:39,526
5/24/19 14:39,480
5/24/19 14:39,502
5/24/19 14:39,518
5/24/19 14:39,480
5/24/19 14:39,541
5/24/19 14:39,493
5/24/19 14:39,514
5/24/19 14:39,527
5/24/19 14:39,485
5/24/19 14:39,540
5/24/19 14:39,488
5/24/19 14:39,515
5/24/19 14:39,522
5/24/19 14:39,479
5/24/19 14:39,534
5/24/19 14:39,484
5/24/19 14:39,515
5/24/19 14:39,522
5/24/19 14:39,482
5/24/19 14:39,539
5/24/19 14:39,481
5/24/19 14:39,511
5/24/19 14:39,516
5/24/19 14:39,481
5/24/19 14:39,527
5/24/19 14:39,473
5/24/19 14:39,514
5/24/19 14:39,516
5/24/19 14:39,485
5/24/19 14:39,538
5/24/19 14:39,481
5/24/19 14:39,518
5/24/19 14:39,513
5/24/19 14:39,484
5/24/19 14:39,537
5/24/19 14:39,476
5/24/19 14:39,487
5/24/19 14:39,528
5/24/19 14:39,496
5/24/19 14:39,546
5/24/19 14:39,482
5/24/19 14:39,528
5/24/19 14:39,506
5/24/19 14:39,482
5/24/19 14:39,527
5/24/19 14:39,469
5/24/19 14:39,511
5/24/19 14:39,501
5/24/19 14:39,487
5/24/19 14:39,532
5/24/19 14:39,481
5/24/19 14:39,532
5/24/19 14:39,509
5/24/19 14:39,493
5/24/19 14:39,538
5/24/19 14:39,480
5/24/19 14:39,530
5/24/19 14:39,498
5/24/19 14:39,491
5/24/19 14:39,533
5/24/19 14:39,478
5/24/19 14:39,530
5/24/19 14:39,501
5/24/19 14:39,496
5/24/19 14:39,533
5/24/19 14:39,470
5/24/19 14:39,533
5/24/19 14:39,499
5/24/19 14:39,497
5/24/19 14:39,531
5/24/19 14:39,473
5/24/19 14:39,529
5/24/19 14:39,495
5/24/19 14:39,494
5/24/19 14:39,526
5/24/19 14:39,469
5/24/19 14:39,528
5/24/19 14:39,497
5/24/19 14:39,502
5/24/19 14:39,528
5/24/19 14:39,477
5/24/19 14:39,534
5/24/19 14:39,440
5/24/19 14:39,520
5/24/19 14:39,539
5/24/19 14:39,486
5/24/19 14:39,542
5/24/19 14:39,490
5/24/19 14:39,500
5/24/19 14:39,522
5/24/19 14:39,470
5/24/19 14:39,530
5/24/19 14:39,482
5/24/19 14:39,501
5/24/19 14:39,522
5/24/19 14:39,467
5/24/19 14:39,539
5/24/19 14:39,493
5/24/19 14:39,514
5/24/19 14:39,529
5/24/19 14:39,485
5/24/19 14:39,540
5/24/19 14:39,488
5/24/19 14:39,513
5/24/19 14:39,522
5/24/19 14:39,479
5/24/19 14:39,537
5/24/19 14:39,484
5/24/19 14:39,513
5/24/19 14:39,519
5/24/19 14:39,481
5/24/19 14:39,535
5/24/19 14:39,479
5/24/19 14:39,510
5/24/19 14:39,508
5/24/19 14:39,480
5/24/19 14:39,530
5/24/19 14:39,481
5/24/19 14:39,520
5/24/19 14:39,516
5/24/19 14:39,483
5/24/19 14:39,539
5/24/19 14:39,480
5/24/19 14:39,519
5/24/19 14:39,511
5/24/19 14:39,483
5/24/19 14:39,535
5/24/19 14:39,451
5/24/19 14:39,521
5/24/19 14:39,526
5/24/19 14:39,488
5/24/19 14:39,536
5/24/19 14:39,483
5/24/19 14:39,526
5/24/19 14:39,510
5/24/19 14:39,484
5/24/19 14:39,530
5/24/19 14:39,470
5/24/19 14:39,518
5/24/19 14:39,503
5/24/19 14:39,489
5/24/19 14:39,537
5/24/19 14:39,479
5/24/19 14:39,527
5/24/19 14:39,508
5/24/19 14:39,493
5/24/19 14:39,536
5/24/19 14:39,479
5/24/19 14:39,522
5/24/19 14:39,495
5/24/19 14:39,494
5/24/19 14:39,537
5/24/19 14:39,479
5/24/19 14:39,532
5/24/19 14:39,501
5/24/19 14:39,495
5/24/19 14:39,533
5/24/19 14:39,475
5/24/19 14:39,531
5/24/19 14:39,495
5/24/19 14:39,493
5/24/19 14:39,527
5/24/19 14:39,473
5/24/19 14:39,529
5/24/19 14:39,494
5/24/19 14:39,494
5/24/19 14:39,528
5/24/19 14:39,475
5/24/19 14:39,528
5/24/19 14:39,496
5/24/19 14:39,501
5/24/19 14:39,529
5/24/19 14:39,475
5/24/19 14:39,496
5/24/19 14:39,505
5/24/19 14:39,512
5/24/19 14:39,533
5/24/19 14:39,482
5/24/19 14:39,544
5/24/19 14:39,492
5/24/19 14:39,500
5/24/19 14:39,520
5/24/19 14:39,469
5/24/19 14:39,529
5/24/19 14:39,485
5/24/19 14:39,503
5/24/19 14:39,523
5/24/19 14:39,479
5/24/19 14:39,538
5/24/19 14:39,484
5/24/19 14:39,511
5/24/19 14:39,529
5/24/19 14:39,483
5/24/19 14:39,538
5/24/19 14:39,486
5/24/19 14:39,514
5/24/19 14:39,526
5/24/19 14:39,482
5/24/19 14:39,539
5/24/19 14:39,484
5/24/19 14:39,512
5/24/19 14:39,521
5/24/19 14:39,481
5/24/19 14:39,536
5/24/19 14:39,477
5/24/19 14:39,510
5/24/19 14:39,510
5/24/19 14:39,474
5/24/19 14:39,535
5/24/19 14:39,482
5/24/19 14:39,518
5/24/19 14:39,516
5/24/19 14:39,485
5/24/19 14:39,536
5/24/19 14:39,479
5/24/19 14:39,517
5/24/19 14:39,513
5/24/19 14:39,484
5/24/19 14:39,535
5/24/19 14:39,434
5/24/19 14:39,536
5/24/19 14:39,523
5/24/19 14:39,494
5/24/19 14:39,530
5/24/19 14:39,481
5/24/19 14:39,521
5/24/19 14:39,505
5/24/19 14:39,481
5/24/19 14:39,529
5/24/19 14:39,470
5/24/19 14:39,520
5/24/19 14:39,508
5/24/19 14:39,490
5/24/19 14:39,537
5/24/19 14:39,476
5/24/19 14:39,532
5/24/19 14:39,511
5/24/19 14:39,496
5/24/19 14:39,539
5/24/19 14:39,479
5/24/19 14:39,532
5/24/19 14:39,504
5/24/19 14:39,492
5/24/19 14:39,532
5/24/19 14:39,476
5/24/19 14:39,527
5/24/19 14:39,497
5/24/19 14:39,487
5/24/19 14:39,532
5/24/19 14:39,477
5/24/19 14:39,531
5/24/19 14:39,499
5/24/19 14:39,493
5/24/19 14:39,521
5/24/19 14:39,473
5/24/19 14:39,532
5/24/19 14:39,500
5/24/19 14:39,495
5/24/19 14:39,529
5/24/19 14:39,475
5/24/19 14:39,532
5/24/19 14:39,495
5/24/19 14:39,498
5/24/19 14:39,527
5/24/19 14:39,464
5/24/19 14:39,521
5/24/19 14:39,506
5/24/19 14:39,510
5/24/19 14:39,535
5/24/19 14:39,480
5/24/19 14:39,540
5/24/19 14:39,489
5/24/19 14:39,495
5/24/19 14:39,517
5/24/19 14:39,470
5/24/19 14:39,522
5/24/19 14:39,485
5/24/19 14:39,503
5/24/19 14:39,527
5/24/19 14:39,481
5/24/19 14:39,535
5/24/19 14:39,492
5/24/19 14:39,513
5/24/19 14:39,528
5/24/19 14:39,483
5/24/19 14:39,541
5/24/19 14:39,488
5/24/19 14:39,511
5/24/19 14:39,524
5/24/19 14:39,475
5/24/19 14:39,533
5/24/19 14:39,484
5/24/19 14:39,514
5/24/19 14:39,520
5/24/19 14:39,482
5/24/19 14:39,537
5/24/19 14:39,480
5/24/19 14:39,512
5/24/19 14:39,509
5/24/19 14:39,480
5/24/19 14:39,536
5/24/19 14:39,482
5/24/19 14:39,513
5/24/19 14:39,511
5/24/19 14:39,477
5/24/19 14:39,541
5/24/19 14:39,483
5/24/19 14:39,520
5/24/19 14:39,515
5/24/19 14:39,486
5/24/19 14:39,531
5/24/19 14:39,458
5/24/19 14:39,537
5/24/19 14:39,522
5/24/19 14:39,490
5/24/19 14:39,542
5/24/19 14:39,483
5/24/19 14:39,519
5/24/19 14:39,503
5/24/19 14:39,479
5/24/19 14:39,527
5/24/19 14:39,469
5/24/19 14:39,519
5/24/19 14:39,504
5/24/19 14:39,488
5/24/19 14:39,536
5/24/19 14:39,472
5/24/19 14:39,531
5/24/19 14:39,512
5/24/19 14:39,491
5/24/19 14:39,536
5/24/19 14:39,479
5/24/19 14:39,532
5/24/19 14:39,507
5/24/19 14:39,493
5/24/19 14:39,533
5/24/19 14:39,474
5/24/19 14:39,529
5/24/19 14:39,495
5/24/19 14:39,493
5/24/19 14:39,534
5/24/19 14:39,477
5/24/19 14:39,532
5/24/19 14:39,495
5/24/19 14:39,493
5/24/19 14:39,530
5/24/19 14:39,473
5/24/19 14:39,529
5/24/19 14:39,495
5/24/19 14:39,493
5/24/19 14:39,523
5/24/19 14:39,475
5/24/19 14:39,528
5/24/19 14:39,497
5/24/19 14:39,502
5/24/19 14:39,529
5/24/19 14:39,466
5/24/19 14:39,523
5/24/19 14:39,509
5/24/19 14:39,514
5/24/19 14:39,534
5/24/19 14:39,485
5/24/19 14:39,539
5/24/19 14:39,487
5/24/19 14:39,495
5/24/19 14:39,518
5/24/19 14:39,469
5/24/19 14:39,529
5/24/19 14:39,483
5/24/19 14:39,503
5/24/19 14:39,524
5/24/19 14:39,480
5/24/19 14:39,538
5/24/19 14:39,488
5/24/19 14:39,501
5/24/19 14:39,527
5/24/19 14:39,485
5/24/19 14:39,545
5/24/19 14:39,489
5/24/19 14:39,514
5/24/19 14:39,522
5/24/19 14:39,481
5/24/19 14:39,539
5/24/19 14:39,483
5/24/19 14:39,513
5/24/19 14:39,519
5/24/19 14:39,466
5/24/19 14:39,534
5/24/19 14:39,482
5/24/19 14:39,516
5/24/19 14:39,519
5/24/19 14:39,483
5/24/19 14:39,537
5/24/19 14:39,480
5/24/19 14:39,515
5/24/19 14:39,514
5/24/19 14:39,482
5/24/19 14:39,538
5/24/19 14:39,477
5/24/19 14:39,518
5/24/19 14:39,511
5/24/19 14:39,484
5/24/19 14:39,530
5/24/19 14:39,454
5/24/19 14:39,533
5/24/19 14:39,512
5/24/19 14:39,496
5/24/19 14:39,545
5/24/19 14:39,485
5/24/19 14:39,524
5/24/19 14:39,504
5/24/19 14:39,479
5/24/19 14:39,530
5/24/19 14:39,473
5/24/19 14:39,523
5/24/19 14:39,503
5/24/19 14:39,488
5/24/19 14:39,538
5/24/19 14:39,478
5/24/19 14:39,532
5/24/19 14:39,505
5/24/19 14:39,492
5/24/19 14:39,536
5/24/19 14:39,478
5/24/19 14:39,519
5/24/19 14:39,502
5/24/19 14:39,496
5/24/19 14:39,535
5/24/19 14:39,481
5/24/19 14:39,531
5/24/19 14:39,501
5/24/19 14:39,495
5/24/19 14:39,530
5/24/19 14:39,475
5/24/19 14:39,530
5/24/19 14:39,492
5/24/19 14:39,494
5/24/19 14:39,531
5/24/19 14:39,471
5/24/19 14:39,530
5/24/19 14:39,492
5/24/19 14:39,497
5/24/19 14:39,528
5/24/19 14:39,473
5/24/19 14:39,532
5/24/19 14:39,488
5/24/19 14:39,501
5/24/19 14:39,529
5/24/19 14:39,472
5/24/19 14:39,478
5/24/19 14:39,509
5/24/19 14:39,519
5/24/19 14:39,539
5/24/19 14:39,486
5/24/19 14:39,540
5/24/19 14:39,489
5/24/19 14:39,498
5/24/19 14:39,517
5/24/19 14:39,468
5/24/19 14:39,529
5/24/19 14:39,482
5/24/19 14:39,503
5/24/19 14:39,523
5/24/19 14:39,479
5/24/19 14:39,540
5/24/19 14:39,488
5/24/19 14:39,514
5/24/19 14:39,526
5/24/19 14:39,482
5/24/19 14:39,537
5/24/19 14:39,488
5/24/19 14:39,517
5/24/19 14:39,522
5/24/19 14:39,483
5/24/19 14:39,531
5/24/19 14:39,479
5/24/19 14:39,515
5/24/19 14:39,520
5/24/19 14:39,484
5/24/19 14:39,537
5/24/19 14:39,479
5/24/19 14:39,515
5/24/19 14:39,514
5/24/19 14:39,480
5/24/19 14:39,533
5/24/19 14:39,474
5/24/19 14:39,519
5/24/19 14:39,514
5/24/19 14:39,485
5/24/19 14:39,536
5/24/19 14:39,475
5/24/19 14:39,515
5/24/19 14:39,509
5/24/19 14:39,488
5/24/19 14:39,538
5/24/19 14:39,442
5/24/19 14:39,541
5/24/19 14:39,523
5/24/19 14:39,498
5/24/19 14:39,541
5/24/19 14:39,482
5/24/19 14:39,521
5/24/19 14:39,498
5/24/19 14:39,480
5/24/19 14:39,520
5/24/19 14:39,462
5/24/19 14:39,524
5/24/19 14:39,505
5/24/19 14:39,493
5/24/19 14:39,537
5/24/19 14:39,480
5/24/19 14:39,535
5/24/19 14:39,508
5/24/19 14:39,495
5/24/19 14:39,534
5/24/19 14:39,477
5/24/19 14:39,532
5/24/19 14:39,501
5/24/19 14:39,495
5/24/19 14:39,532
5/24/19 14:39,475
5/24/19 14:39,517
5/24/19 14:39,498
5/24/19 14:39,499
5/24/19 14:39,534
5/24/19 14:39,477
5/24/19 14:39,533
5/24/19 14:39,495
5/24/19 14:48,522
5/24/19 14:48,532
5/24/19 14:48,478
5/24/19 14:48,528
5/24/19 14:48,499
5/24/19 14:48,491
5/24/19 14:48,502
5/24/19 14:48,476
5/24/19 14:48,536
5/24/19 14:48,504
5/24/19 14:48,490
5/24/19 14:48,515
5/24/19 14:48,494
5/24/19 14:48,544
5/24/19 14:48,507
5/24/19 14:48,508
5/24/19 14:48,520
5/24/19 14:48,462
5/24/19 14:48,531
5/24/19 14:48,490
5/24/19 14:48,497
5/24/19 14:48,525
5/24/19 14:48,476
5/24/19 14:48,533
5/24/19 14:48,481
5/24/19 14:48,486
5/24/19 14:48,528
5/24/19 14:48,487
5/24/19 14:48,545
5/24/19 14:48,496
5/24/19 14:48,513
5/24/19 14:48,531
5/24/19 14:48,480
5/24/19 14:48,537
5/24/19 14:48,487
5/24/19 14:48,505
5/24/19 14:48,506
5/24/19 14:48,482
5/24/19 14:48,543
5/24/19 14:48,493
5/24/19 14:48,512
5/24/19 14:48,524
5/24/19 14:48,479
5/24/19 14:48,534
5/24/19 14:48,466
5/24/19 14:48,496
5/24/19 14:48,517
5/24/19 14:48,486
5/24/19 14:48,539
5/24/19 14:48,474
5/24/19 14:48,516
5/24/19 14:48,518
5/24/19 14:48,487
5/24/19 14:48,539
5/24/19 14:48,485
5/24/19 14:48,508
5/24/19 14:48,517
5/24/19 14:48,482
5/24/19 14:48,513
5/24/19 14:48,496
5/24/19 14:48,532
5/24/19 14:48,528
5/24/19 14:48,489
5/24/19 14:48,539
5/24/19 14:48,479
5/24/19 14:48,513
5/24/19 14:48,493
5/24/19 14:48,477
5/24/19 14:48,521
5/24/19 14:48,479
5/24/19 14:48,527
5/24/19 14:48,513
5/24/19 14:48,492
5/24/19 14:48,539
5/24/19 14:48,457
5/24/19 14:48,527
5/24/19 14:48,518
5/24/19 14:48,499
5/24/19 14:48,543
5/24/19 14:48,483
5/24/19 14:48,516
5/24/19 14:48,496
5/24/19 14:48,498
5/24/19 14:48,542
5/24/19 14:48,483
5/24/19 14:48,532
5/24/19 14:48,503
5/24/19 14:48,493
5/24/19 14:48,531
5/24/19 14:48,474
5/24/19 14:48,526
5/24/19 14:48,479
5/24/19 14:48,478
5/24/19 14:48,530
5/24/19 14:48,481
5/24/19 14:48,533
5/24/19 14:48,499
5/24/19 14:48,496
5/24/19 14:48,517
5/24/19 14:48,462
5/24/19 14:48,536
5/24/19 14:48,502
5/24/19 14:48,492
5/24/19 14:48,533
5/24/19 14:48,485
5/24/19 14:48,536
5/24/19 14:48,458
5/24/19 14:48,520
5/24/19 14:48,524
5/24/19 14:48,486
5/24/19 14:48,544
5/24/19 14:48,499
5/24/19 14:48,505
5/24/19 14:48,509
5/24/19 14:48,470
5/24/19 14:48,515
5/24/19 14:48,481
5/24/19 14:48,504
5/24/19 14:48,525
5/24/19 14:48,481
5/24/19 14:48,540
5/24/19 14:48,491
5/24/19 14:48,511
5/24/19 14:48,526
5/24/19 14:48,482
5/24/19 14:48,537
5/24/19 14:48,463
5/24/19 14:48,514
5/24/19 14:48,529
5/24/19 14:48,488
5/24/19 14:48,542
5/24/19 14:48,475
5/24/19 14:48,518
5/24/19 14:48,526
5/24/19 14:48,489
5/24/19 14:48,526
5/24/19 14:48,478
5/24/19 14:48,515
5/24/19 14:48,515
5/24/19 14:48,481
5/24/19 14:48,534
5/24/19 14:48,478
5/24/19 14:48,515
5/24/19 14:48,509
5/24/19 14:48,477
5/24/19 14:48,530
5/24/19 14:48,473
5/24/19 14:48,517
5/24/19 14:48,516
5/24/19 14:48,491
5/24/19 14:48,540
5/24/19 14:48,480
5/24/19 14:48,514
5/24/19 14:48,515
5/24/19 14:48,442
5/24/19 14:48,541
5/24/19 14:48,489
5/24/19 14:48,526
5/24/19 14:48,520
5/24/19 14:48,502
5/24/19 14:48,541
5/24/19 14:48,478
5/24/19 14:48,522
5/24/19 14:48,473
5/24/19 14:48,483
5/24/19 14:48,536
5/24/19 14:48,480
5/24/19 14:48,532
5/24/19 14:48,505
5/24/19 14:48,494
5/24/19 14:48,535
5/24/19 14:48,480
5/24/19 14:48,515
5/24/19 14:48,499
5/24/19 14:48,498
5/24/19 14:48,535
5/24/19 14:48,478
5/24/19 14:48,535
5/24/19 14:48,499
5/24/19 14:48,496
5/24/19 14:48,528
5/24/19 14:48,467
5/24/19 14:48,536
5/24/19 14:48,496
5/24/19 14:48,492
5/24/19 14:48,531
5/24/19 14:48,479
5/24/19 14:48,523
5/24/19 14:48,494
5/24/19 14:48,503
5/24/19 14:48,526
5/24/19 14:48,469
5/24/19 14:48,533
5/24/19 14:48,486
5/24/19 14:48,498
5/24/19 14:48,532
5/24/19 14:48,485
5/24/19 14:48,543
5/24/19 14:48,495
5/24/19 14:48,510
5/24/19 14:48,525
5/24/19 14:48,479
5/24/19 14:48,467
5/24/19 14:48,503
5/24/19 14:48,524
5/24/19 14:48,527
5/24/19 14:48,478
5/24/19 14:48,536
5/24/19 14:48,492
5/24/19 14:48,511
5/24/19 14:48,519
5/24/19 14:48,478
5/24/19 14:48,531
5/24/19 14:48,479
5/24/19 14:48,509
5/24/19 14:48,515
5/24/19 14:48,473
5/24/19 14:48,537
5/24/19 14:48,483
5/24/19 14:48,514
5/24/19 14:48,526
5/24/19 14:48,476
5/24/19 14:48,540
5/24/19 14:48,487
5/24/19 14:48,525
5/24/19 14:48,520
5/24/19 14:48,489
5/24/19 14:48,539
5/24/19 14:48,483
5/24/19 14:48,520
5/24/19 14:48,502
5/24/19 14:48,470
5/24/19 14:48,537
5/24/19 14:48,482
5/24/19 14:48,526
5/24/19 14:48,511
5/24/19 14:48,481
5/24/19 14:48,531
5/24/19 14:48,468
5/24/19 14:48,524
5/24/19 14:48,512
5/24/19 14:48,490
5/24/19 14:48,536
5/24/19 14:48,479
5/24/19 14:48,516
5/24/19 14:48,494
5/24/19 14:48,489
5/24/19 14:48,538
5/24/19 14:48,483
5/24/19 14:48,495
5/24/19 14:48,508
5/24/19 14:48,507
5/24/19 14:48,546
5/24/19 14:48,490
5/24/19 14:48,529
5/24/19 14:48,500
5/24/19 14:48,493
5/24/19 14:48,522
5/24/19 14:48,463
5/24/19 14:48,511
5/24/19 14:48,493
5/24/19 14:48,496
5/24/19 14:48,533
5/24/19 14:48,479
5/24/19 14:48,525
5/24/19 14:48,503
5/24/19 14:48,491
5/24/19 14:48,534
5/24/19 14:48,484
5/24/19 14:48,541
5/24/19 14:48,499
5/24/19 14:48,507
5/24/19 14:48,530
5/24/19 14:48,468
5/24/19 14:48,536
5/24/19 14:48,497
5/24/19 14:48,503
5/24/19 14:48,520
5/24/19 14:48,479
5/24/19 14:48,536
5/24/19 14:48,491
5/24/19 14:48,505
5/24/19 14:48,522
5/24/19 14:48,476
5/24/19 14:48,533
5/24/19 14:48,484
5/24/19 14:48,503
5/24/19 14:48,516
5/24/19 14:48,467
5/24/19 14:48,530
5/24/19 14:48,489
5/24/19 14:48,515
5/24/19 14:48,525
5/24/19 14:48,472
5/24/19 14:48,542
5/24/19 14:48,486
5/24/19 14:48,507
5/24/19 14:48,466
5/24/19 14:48,499
5/24/19 14:48,555
5/24/19 14:48,495
5/24/19 14:48,527
5/24/19 14:48,525
5/24/19 14:48,480
5/24/19 14:48,522
5/24/19 14:48,478
5/24/19 14:48,512
5/24/19 14:48,513
5/24/19 14:48,481
5/24/19 14:48,534
5/24/19 14:48,478
5/24/19 14:48,511
5/24/19 14:48,519
5/24/19 14:48,475
5/24/19 14:48,541
5/24/19 14:48,487
5/24/19 14:48,527
5/24/19 14:48,519
5/24/19 14:48,492
5/24/19 14:48,526
5/24/19 14:48,481
5/24/19 14:48,515
5/24/19 14:48,511
5/24/19 14:48,493
5/24/19 14:48,540
5/24/19 14:48,480
5/24/19 14:48,528
5/24/19 14:48,493
5/24/19 14:48,481
5/24/19 14:48,538
5/24/19 14:48,481
5/24/19 14:48,529
5/24/19 14:48,503
5/24/19 14:48,489
5/24/19 14:48,530
5/24/19 14:48,474
5/24/19 14:48,526
5/24/19 14:48,499
5/24/19 14:48,492
5/24/19 14:48,513
5/24/19 14:48,468
5/24/19 14:48,532
5/24/19 14:48,507
5/24/19 14:48,502
5/24/19 14:48,518
5/24/19 14:48,448
5/24/19 14:48,547
5/24/19 14:48,517
5/24/19 14:48,516
5/24/19 14:48,545
5/24/19 14:48,482
5/24/19 14:48,533
5/24/19 14:48,487
5/24/19 14:48,490
5/24/19 14:48,504
5/24/19 14:48,464
5/24/19 14:48,523
5/24/19 14:48,492
5/24/19 14:48,506
5/24/19 14:48,528
5/24/19 14:48,466
5/24/19 14:48,547
5/24/19 14:48,503
5/24/19 14:48,516
5/24/19 14:48,535
5/24/19 14:48,486
5/24/19 14:48,541
5/24/19 14:48,488
5/24/19 14:48,507
5/24/19 14:48,523
5/24/19 14:48,471
5/24/19 14:48,521
5/24/19 14:48,488
5/24/19 14:48,516
5/24/19 14:48,528
5/24/19 14:48,484
5/24/19 14:48,537
5/24/19 14:48,484
5/24/19 14:48,507
5/24/19 14:48,515
5/24/19 14:48,467
5/24/19 14:48,517
5/24/19 14:48,479
5/24/19 14:48,517
5/24/19 14:48,521
5/24/19 14:48,483
5/24/19 14:48,538
5/24/19 14:48,474
5/24/19 14:48,515
5/24/19 14:48,521
5/24/19 14:48,487
5/24/19 14:48,539
5/24/19 14:48,415
5/24/19 14:48,535
5/24/19 14:48,525
5/24/19 14:48,495
5/24/19 14:48,537
5/24/19 14:48,483
5/24/19 14:48,520
5/24/19 14:48,503
5/24/19 14:48,487
5/24/19 14:48,534
5/24/19 14:48,475
5/24/19 14:48,514
5/24/19 14:48,501
5/24/19 14:48,480
5/24/19 14:48,536
5/24/19 14:48,483
5/24/19 14:48,534
5/24/19 14:48,514
5/24/19 14:48,496
5/24/19 14:48,540
5/24/19 14:48,453
5/24/19 14:48,525
5/24/19 14:48,511
5/24/19 14:48,498
5/24/19 14:48,539
5/24/19 14:48,482
5/24/19 14:48,533
5/24/19 14:48,491
5/24/19 14:48,495
5/24/19 14:48,534
5/24/19 14:48,466
5/24/19 14:48,526
5/24/19 14:48,500
5/24/19 14:48,495
5/24/19 14:48,529
5/24/19 14:48,473
5/24/19 14:48,530
5/24/19 14:48,488
5/24/19 14:48,476
5/24/19 14:48,530
5/24/19 14:48,481
5/24/19 14:48,537
5/24/19 14:48,498
5/24/19 14:48,503
5/24/19 14:48,529
5/24/19 14:48,458
5/24/19 14:48,530
5/24/19 14:48,497
5/24/19 14:48,459
5/24/19 14:48,548
5/24/19 14:48,495
5/24/19 14:48,551
5/24/19 14:48,502
5/24/19 14:48,509
5/24/19 14:48,506
5/24/19 14:48,463
5/24/19 14:48,532
5/24/19 14:48,487
5/24/19 14:48,506
5/24/19 14:48,523
5/24/19 14:48,475
5/24/19 14:48,522
5/24/19 14:48,493
5/24/19 14:48,520
5/24/19 14:48,532
5/24/19 14:48,475
5/24/19 14:48,537
5/24/19 14:48,495
5/24/19 14:48,521
5/24/19 14:48,529
5/24/19 14:48,488
5/24/19 14:48,542
5/24/19 14:48,484
5/24/19 14:48,512
5/24/19 14:48,516
5/24/19 14:48,480
5/24/19 14:48,535
5/24/19 14:48,480
5/24/19 14:48,513
5/24/19 14:48,510
5/24/19 14:48,479
5/24/19 14:48,533
5/24/19 14:48,476
5/24/19 14:48,495
5/24/19 14:48,501
5/24/19 14:48,488
5/24/19 14:48,542
5/24/19 14:48,483
5/24/19 14:48,523
5/24/19 14:48,514
5/24/19 14:48,465
5/24/19 14:48,538
5/24/19 14:48,487
5/24/19 14:48,526
5/24/19 14:48,507
5/24/19 14:48,462
5/24/19 14:48,536
5/24/19 14:48,493
5/24/19 14:48,540
5/24/19 14:48,523
5/24/19 14:48,501
5/24/19 14:48,537
5/24/19 14:48,467
5/24/19 14:48,510
5/24/19 14:48,500
5/24/19 14:48,488
5/24/19 14:48,531
5/24/19 14:48,475
5/24/19 14:48,525
5/24/19 14:48,481
5/24/19 14:48,499
5/24/19 14:48,544
5/24/19 14:48,485
5/24/19 14:48,538
5/24/19 14:48,507
5/24/19 14:48,480
5/24/19 14:48,530
5/24/19 14:48,484
5/24/19 14:48,538
5/24/19 14:48,503
5/24/19 14:48,501
5/24/19 14:48,531
5/24/19 14:48,477
5/24/19 14:48,534
5/24/19 14:48,470
5/24/19 14:48,494
5/24/19 14:48,531
5/24/19 14:48,480
5/24/19 14:48,537
5/24/19 14:48,494
5/24/19 14:48,502
5/24/19 14:48,523
5/24/19 14:48,475
5/24/19 14:48,524
5/24/19 14:48,469
5/24/19 14:48,501
5/24/19 14:48,530
5/24/19 14:48,482
5/24/19 14:48,538
5/24/19 14:48,490
5/24/19 14:48,509
5/24/19 14:48,524
5/24/19 14:48,480
5/24/19 14:48,506
5/24/19 14:48,480
5/24/19 14:48,519
5/24/19 14:48,526
5/24/19 14:48,496
5/24/19 14:48,549
5/24/19 14:48,492
5/24/19 14:48,505
5/24/19 14:48,519
5/24/19 14:48,481
5/24/19 14:48,534
5/24/19 14:48,479
5/24/19 14:48,511
5/24/19 14:48,516
5/24/19 14:48,479
5/24/19 14:48,534
5/24/19 14:48,471
5/24/19 14:48,506
5/24/19 14:48,524
5/24/19 14:48,495
5/24/19 14:48,533
5/24/19 14:48,480
5/24/19 14:48,526
5/24/19 14:48,520
5/24/19 14:48,490
5/24/19 14:48,540
5/24/19 14:48,482
5/24/19 14:48,522
5/24/19 14:48,502
5/24/19 14:48,474
5/24/19 14:48,537
5/24/19 14:48,483
5/24/19 14:48,528
5/24/19 14:48,511
5/24/19 14:48,489
5/24/19 14:48,527
5/24/19 14:48,480
5/24/19 14:48,510
5/24/19 14:48,490
5/24/19 14:48,490
5/24/19 14:48,543
5/24/19 14:48,482
5/24/19 14:48,532
5/24/19 14:48,506
5/24/19 14:48,492
5/24/19 14:48,534
5/24/19 14:48,474
5/24/19 14:48,526
5/24/19 14:48,451
5/24/19 14:48,484
5/24/19 14:48,543
5/24/19 14:48,486
5/24/19 14:48,530
5/24/19 14:48,505
5/24/19 14:48,504
5/24/19 14:48,534
5/24/19 14:48,477
5/24/19 14:48,528
5/24/19 14:48,492
5/24/19 14:48,478
5/24/19 14:48,517
5/24/19 14:48,480
5/24/19 14:48,540
5/24/19 14:48,502
5/24/19 14:48,505
5/24/19 14:57,512
5/24/19 14:57,495
5/24/19 14:57,532
5/24/19 14:57,474
5/24/19 14:57,526
5/24/19 14:57,482
5/24/19 14:57,496
5/24/19 14:57,533
5/24/19 14:57,479
5/24/19 14:57,536
5/24/19 14:57,498
5/24/19 14:57,500
5/24/19 14:57,499
5/24/19 14:57,477
5/24/19 14:57,548
5/24/19 14:57,494
5/24/19 14:57,492
5/24/19 14:57,536
5/24/19 14:57,488
5/24/19 14:57,539
5/24/19 14:57,490
5/24/19 14:57,497
5/24/19 14:57,520
5/24/19 14:57,472
5/24/19 14:57,531
5/24/19 14:57,486
5/24/19 14:57,504
5/24/19 14:57,524
5/24/19 14:57,460
5/24/19 14:57,533
5/24/19 14:57,495
5/24/19 14:57,518
5/24/19 14:57,533
5/24/19 14:57,485
5/24/19 14:57,539
5/24/19 14:57,463
5/24/19 14:57,511
5/24/19 14:57,529
5/24/19 14:57,487
5/24/19 14:57,542
5/24/19 14:57,487
5/24/19 14:57,514
5/24/19 14:57,520
5/24/19 14:57,481
5/24/19 14:57,535
5/24/19 14:57,480
5/24/19 14:57,511
5/24/19 14:57,512
5/24/19 14:57,477
5/24/19 14:57,530
5/24/19 14:57,472
5/24/19 14:57,517
5/24/19 14:57,516
5/24/19 14:57,485
5/24/19 14:57,525
5/24/19 14:57,478
5/24/19 14:57,519
5/24/19 14:57,508
5/24/19 14:57,490
5/24/19 14:57,542
5/24/19 14:57,470
5/24/19 14:57,498
5/24/19 14:57,528
5/24/19 14:57,502
5/24/19 14:57,549
5/24/19 14:57,487
5/24/19 14:57,521
5/24/19 14:57,510
5/24/19 14:57,480
5/24/19 14:57,533
5/24/19 14:57,474
5/24/19 14:57,521
5/24/19 14:57,505
5/24/19 14:57,483
5/24/19 14:57,532
5/24/19 14:57,466
5/24/19 14:57,530
5/24/19 14:57,514
5/24/19 14:57,496
5/24/19 14:57,540
5/24/19 14:57,481
5/24/19 14:57,530
5/24/19 14:57,505
5/24/19 14:57,493
5/24/19 14:57,531
5/24/19 14:57,458
5/24/19 14:57,529
5/24/19 14:57,506
5/24/19 14:57,499
5/24/19 14:57,536
5/24/19 14:57,478
5/24/19 14:57,532
5/24/19 14:57,497
5/24/19 14:57,484
5/24/19 14:57,527
5/24/19 14:57,473
5/24/19 14:57,523
5/24/19 14:57,496
5/24/19 14:57,499
5/24/19 14:57,528
5/24/19 14:57,477
5/24/19 14:57,534
5/24/19 14:57,493
5/24/19 14:57,501
5/24/19 14:57,527
5/24/19 14:57,475
5/24/19 14:57,533
5/24/19 14:57,482
5/24/19 14:57,484
5/24/19 14:57,499
5/24/19 14:57,502
5/24/19 14:57,557
5/24/19 14:57,503
5/24/19 14:57,515
5/24/19 14:57,531
5/24/19 14:57,459
5/24/19 14:57,534
5/24/19 14:57,489
5/24/19 14:57,506
5/24/19 14:57,521
5/24/19 14:57,477
5/24/19 14:57,523
5/24/19 14:57,486
5/24/19 14:57,513
5/24/19 14:57,521
5/24/19 14:57,477
5/24/19 14:57,541
5/24/19 14:57,490
5/24/19 14:57,517
5/24/19 14:57,514
5/24/19 14:57,485
5/24/19 14:57,544
5/24/19 14:57,488
5/24/19 14:57,516
5/24/19 14:57,521
5/24/19 14:57,482
5/24/19 14:57,522
5/24/19 14:57,476
5/24/19 14:57,520
5/24/19 14:57,522
5/24/19 14:57,487
5/24/19 14:57,538
5/24/19 14:57,480
5/24/19 14:57,502
5/24/19 14:57,509
5/24/19 14:57,481
5/24/19 14:57,528
5/24/19 14:57,481
5/24/19 14:57,523
5/24/19 14:57,517
5/24/19 14:57,487
5/24/19 14:57,537
5/24/19 14:57,479
5/24/19 14:57,522
5/24/19 14:57,507
5/24/19 14:57,485
5/24/19 14:57,535
5/24/19 14:57,408
5/24/19 14:57,540
5/24/19 14:57,511
5/24/19 14:57,496
5/24/19 14:57,546
5/24/19 14:57,491
5/24/19 14:57,532
5/24/19 14:57,507
5/24/19 14:57,485
5/24/19 14:57,507
5/24/19 14:57,468
5/24/19 14:57,529
5/24/19 14:57,505
5/24/19 14:57,494
5/24/19 14:57,537
5/24/19 14:57,481
5/24/19 14:57,532
5/24/19 14:57,494
5/24/19 14:57,481
5/24/19 14:57,539
5/24/19 14:57,484
5/24/19 14:57,540
5/24/19 14:57,505
5/24/19 14:57,497
5/24/19 14:57,535
5/24/19 14:57,478
5/24/19 14:57,533
5/24/19 14:57,494
5/24/19 14:57,497
5/24/19 14:57,528
5/24/19 14:57,474
5/24/19 14:57,530
5/24/19 14:57,492
5/24/19 14:57,498
5/24/19 14:57,512
5/24/19 14:57,468
5/24/19 14:57,526
5/24/19 14:57,495
5/24/19 14:57,503
5/24/19 14:57,529
5/24/19 14:57,480
5/24/19 14:57,524
5/24/19 14:57,477
5/24/19 14:57,508
5/24/19 14:57,533
5/24/19 14:57,486
5/24/19 14:57,541
5/24/19 14:57,476
5/24/19 14:57,458
5/24/19 14:57,533
5/24/19 14:57,501
5/24/19 14:57,553
5/24/19 14:57,502
5/24/19 14:57,512
5/24/19 14:57,525
5/24/19 14:57,480
5/24/19 14:57,534
5/24/19 14:57,476
5/24/19 14:57,482
5/24/19 14:57,509
5/24/19 14:57,481
5/24/19 14:57,540
5/24/19 14:57,488
5/24/19 14:57,518
5/24/19 14:57,522
5/24/19 14:57,485
5/24/19 14:57,527
5/24/19 14:57,475
5/24/19 14:57,523
5/24/19 14:57,526
5/24/19 14:57,483
5/24/19 14:57,525
5/24/19 14:57,486
5/24/19 14:57,527
5/24/19 14:57,523
5/24/19 14:57,490
5/24/19 14:57,541
5/24/19 14:57,481
5/24/19 14:57,519
5/24/19 14:57,512
5/24/19 14:57,482
5/24/19 14:57,519
5/24/19 14:57,469
5/24/19 14:57,517
5/24/19 14:57,507
5/24/19 14:57,487
5/24/19 14:57,534
5/24/19 14:57,475
5/24/19 14:57,522
5/24/19 14:57,507
5/24/19 14:57,486
5/24/19 14:57,535
5/24/19 14:57,479
5/24/19 14:57,525
5/24/19 14:57,482
5/24/19 14:57,489
5/24/19 14:57,495
5/24/19 14:57,489
5/24/19 14:57,548
5/24/19 14:57,520
5/24/19 14:57,505
5/24/19 14:57,520
5/24/19 14:57,479
5/24/19 14:57,534
5/24/19 14:57,503
5/24/19 14:57,492
5/24/19 14:57,529
5/24/19 14:57,473
5/24/19 14:57,525
5/24/19 14:57,496
5/24/19 14:57,493
5/24/19 14:57,531
5/24/19 14:57,475
5/24/19 14:57,534
5/24/19 14:57,500
5/24/19 14:57,498
5/24/19 14:57,528
5/24/19 14:57,459
5/24/19 14:57,536
5/24/19 14:57,503
5/24/19 14:57,505
5/24/19 14:57,527
5/24/19 14:57,466
5/24/19 14:57,539
5/24/19 14:57,503
5/24/19 14:57,508
5/24/19 14:57,532
5/24/19 14:57,481
5/24/19 14:57,536
5/24/19 14:57,490
5/24/19 14:57,501
5/24/19 14:57,519
5/24/19 14:57,473
5/24/19 14:57,531
5/24/19 14:57,487
5/24/19 14:57,501
5/24/19 14:57,522
5/24/19 14:57,473
5/24/19 14:57,528
5/24/19 14:57,488
5/24/19 14:57,511
5/24/19 14:57,525
5/24/19 14:57,481
5/24/19 14:57,535
5/24/19 14:57,424
5/24/19 14:57,518
5/24/19 14:57,539
5/24/19 14:57,496
5/24/19 14:57,545
5/24/19 14:57,482
5/24/19 14:57,519
5/24/19 14:57,522
5/24/19 14:57,482
5/24/19 14:57,531
5/24/19 14:57,476
5/24/19 14:57,509
5/24/19 14:57,515
5/24/19 14:57,479
5/24/19 14:57,535
5/24/19 14:57,481
5/24/19 14:57,518
5/24/19 14:57,508
5/24/19 14:57,480
5/24/19 14:57,537
5/24/19 14:57,485
5/24/19 14:57,523
5/24/19 14:57,517
5/24/19 14:57,488
5/24/19 14:57,537
5/24/19 14:57,481
5/24/19 14:57,524
5/24/19 14:57,512
5/24/19 14:57,486
5/24/19 14:57,534
5/24/19 14:57,473
5/24/19 14:57,526
5/24/19 14:57,510
5/24/19 14:57,490
5/24/19 14:57,530
5/24/19 14:57,468
5/24/19 14:57,516
5/24/19 14:57,510
5/24/19 14:57,493
5/24/19 14:57,535
5/24/19 14:57,479
5/24/19 14:57,517
5/24/19 14:57,503
5/24/19 14:57,495
5/24/19 14:57,528
5/24/19 14:57,477
5/24/19 14:57,533
5/24/19 14:57,507
5/24/19 14:57,468
5/24/19 14:57,519
5/24/19 14:57,495
5/24/19 14:57,536
5/24/19 14:57,511
5/24/19 14:57,510
5/24/19 14:57,541
5/24/19 14:57,479
5/24/19 14:57,525
5/24/19 14:57,488
5/24/19 14:57,479
5/24/19 14:57,521
5/24/19 14:57,475
5/24/19 14:57,533
5/24/19 14:57,476
5/24/19 14:57,500
5/24/19 14:57,537
5/24/19 14:57,485
5/24/19 14:57,542
5/24/19 14:57,500
5/24/19 14:57,506
5/24/19 14:57,529
5/24/19 14:57,480
5/24/19 14:57,536
5/24/19 14:57,491
5/24/19 14:57,502
5/24/19 14:57,522
5/24/19 14:57,477
5/24/19 14:57,532
5/24/19 14:57,477
5/24/19 14:57,506
5/24/19 14:57,528
5/24/19 14:57,480
5/24/19 14:57,535
5/24/19 14:57,485
5/24/19 14:57,506
5/24/19 14:57,519
5/24/19 14:57,475
5/24/19 14:57,529
5/24/19 14:57,483
5/24/19 14:57,508
5/24/19 14:57,517
5/24/19 14:57,480
5/24/19 14:57,533
5/24/19 14:57,465
5/24/19 14:57,510
5/24/19 14:57,524
5/24/19 14:57,488
5/24/19 14:57,487
5/24/19 14:57,496
5/24/19 14:57,535
5/24/19 14:57,529
5/24/19 14:57,490
5/24/19 14:57,546
5/24/19 14:57,487
5/24/19 14:57,516
5/24/19 14:57,499
5/24/19 14:57,472
5/24/19 14:57,526
5/24/19 14:57,476
5/24/19 14:57,515
5/24/19 14:57,511
5/24/19 14:57,486
5/24/19 14:57,532
5/24/19 14:57,488
5/24/19 14:57,522
5/24/19 14:57,509
5/24/19 14:57,494
5/24/19 14:57,541
5/24/19 14:57,486
5/24/19 14:57,528
5/24/19 14:57,512
5/24/19 14:57,490
5/24/19 14:57,534
5/24/19 14:57,477
5/24/19 14:57,525
5/24/19 14:57,506
5/24/19 14:57,488
5/24/19 14:57,531
5/24/19 14:57,476
5/24/19 14:57,525
5/24/19 14:57,500
5/24/19 14:57,481
5/24/19 14:57,527
5/24/19 14:57,477
5/24/19 14:57,515
5/24/19 14:57,500
5/24/19 14:57,493
5/24/19 14:57,532
5/24/19 14:57,480
5/24/19 14:57,523
5/24/19 14:57,492
5/24/19 14:57,496
5/24/19 14:57,534
5/24/19 14:57,482
5/24/19 14:57,534
5/24/19 14:57,444
5/24/19 14:57,502
5/24/19 14:57,547
5/24/19 14:57,495
5/24/19 14:57,545
5/24/19 14:57,505
5/24/19 14:57,506
5/24/19 14:57,524
5/24/19 14:57,457
5/24/19 14:57,522
5/24/19 14:57,486
5/24/19 14:57,496
5/24/19 14:57,523
5/24/19 14:57,476
5/24/19 14:57,532
5/24/19 14:57,487
5/24/19 14:57,510
5/24/19 14:57,530
5/24/19 14:57,485
5/24/19 14:57,539
5/24/19 14:57,493
5/24/19 14:57,509
5/24/19 14:57,526
5/24/19 14:57,482
5/24/19 14:57,533
5/24/19 14:57,481
5/24/19 14:57,509
5/24/19 14:57,522
5/24/19 14:57,484
5/24/19 14:57,537
5/24/19 14:57,475
5/24/19 14:57,510
5/24/19 14:57,524
5/24/19 14:57,484
5/24/19 14:57,534
5/24/19 14:57,482
5/24/19 14:57,509
5/24/19 14:57,501
5/24/19 14:57,471
5/24/19 14:57,537
5/24/19 14:57,487
5/24/19 14:57,519
5/24/19 14:57,521
5/24/19 14:57,487
5/24/19 14:57,534
5/24/19 14:57,481
5/24/19 14:57,516
5/24/19 14:57,512
5/24/19 14:57,426
5/24/19 14:57,552
5/24/19 14:57,488
5/24/19 14:57,509
5/24/19 14:57,512
5/24/19 14:57,502
5/24/19 14:57,543
5/24/19 14:57,479
5/24/19 14:57,522
5/24/19 14:57,508
5/24/19 14:57,475
5/24/19 14:57,535
5/24/19 14:57,481
5/24/19 14:57,527
5/24/19 14:57,511
5/24/19 14:57,491
5/24/19 14:57,536
5/24/19 14:57,480
5/24/19 14:57,525
5/24/19 14:57,496
5/24/19 14:57,492
5/24/19 14:57,535
5/24/19 14:57,480
5/24/19 14:57,529
5/24/19 14:57,503
5/24/19 14:57,494
5/24/19 14:57,530
5/24/19 14:57,479
5/24/19 14:57,528
5/24/19 14:57,495
5/24/19 14:57,491
5/24/19 14:57,533
5/24/19 14:57,479
5/24/19 14:57,504
5/24/19 14:57,498
5/24/19 14:57,501
5/24/19 14:57,533
5/24/19 14:57,481
5/24/19 14:57,532
5/24/19 14:57,496
5/24/19 14:57,496
5/24/19 14:57,516
5/24/19 14:57,471
5/24/19 14:57,531
5/24/19 14:57,497
5/24/19 14:57,503
5/24/19 14:57,528
5/24/19 14:57,479
5/24/19 14:57,471
5/24/19 14:57,505
5/24/19 14:57,522
5/24/19 14:57,538
5/24/19 14:57,484
5/24/19 14:57,543
5/24/19 14:57,483
5/24/19 14:57,505
5/24/19 14:57,522
5/24/19 14:57,476
5/24/19 14:57,528
5/24/19 14:57,480
5/24/19 14:57,500
5/24/19 14:57,524
5/24/19 14:57,485
5/24/19 14:57,538
5/24/19 14:57,490
5/24/19 14:57,510
5/24/19 14:57,509
5/24/19 14:57,487
5/24/19 14:57,545
5/24/19 14:57,493
5/24/19 14:57,517
5/24/19 14:57,522
5/24/19 14:57,483
5/24/19 14:57,516
5/24/19 14:57,479
5/24/19 14:57,520
5/24/19 14:57,522
5/24/19 14:57,489
5/24/19 14:57,539
5/24/19 14:57,484
5/24/19 14:57,516
5/24/19 14:57,513
5/24/19 14:57,482
5/24/19 14:57,531
5/24/19 14:57,478
5/24/19 14:57,511
5/24/19 14:57,509
5/24/19 14:57,480
5/24/19 14:57,515
5/24/19 14:57,481
5/24/19 14:57,525
5/24/19 14:57,515
5/24/19 14:57,490
5/24/19 14:57,536
5/24/19 14:57,482
5/24/19 14:57,522
5/24/19 14:57,455
5/24/19 14:57,507
5/24/19 14:57,546
5/24/19 14:57,486
5/24/19 14:57,532
5/24/19 14:57,503
5/24/19 14:57,489
5/24/19 14:57,519
5/24/19 14:57,473
5/24/19 14:57,522
5/24/19 14:57,500
5/24/19 15:06,501
5/24/19 15:06,490
5/24/19 15:06,529
5/24/19 15:06,474
5/24/19 15:06,514
5/24/19 15:06,517
5/24/19 15:06,495
5/24/19 15:06,538
5/24/19 15:06,483
5/24/19 15:06,522
5/24/19 15:06,505
5/24/19 15:06,487
5/24/19 15:06,527
5/24/19 15:06,462
5/24/19 15:06,511
5/24/19 15:06,506
5/24/19 15:06,495
5/24/19 15:06,535
5/24/19 15:06,480
5/24/19 15:06,529
5/24/19 15:06,503
5/24/19 15:06,488
5/24/19 15:06,521
5/24/19 15:06,483
5/24/19 15:06,531
5/24/19 15:06,504
5/24/19 15:06,444
5/24/19 15:06,547
5/24/19 15:06,494
5/24/19 15:06,539
5/24/19 15:06,506
5/24/19 15:06,485
5/24/19 15:06,530
5/24/19 15:06,480
5/24/19 15:06,530
5/24/19 15:06,495
5/24/19 15:06,495
5/24/19 15:06,518
5/24/19 15:06,471
5/24/19 15:06,519
5/24/19 15:06,497
5/24/19 15:06,505
5/24/19 15:06,530
5/24/19 15:06,485
5/24/19 15:06,536
5/24/19 15:06,497
5/24/19 15:06,505
5/24/19 15:06,522
5/24/19 15:06,475
5/24/19 15:06,528
5/24/19 15:06,495
5/24/19 15:06,512
5/24/19 15:06,530
5/24/19 15:06,483
5/24/19 15:06,537
5/24/19 15:06,491
5/24/19 15:06,508
5/24/19 15:06,522
5/24/19 15:06,480
5/24/19 15:06,524
5/24/19 15:06,473
5/24/19 15:06,507
5/24/19 15:06,523
5/24/19 15:06,486
5/24/19 15:06,522
5/24/19 15:06,479
5/24/19 15:06,517
5/24/19 15:06,524
5/24/19 15:06,489
5/24/19 15:06,539
5/24/19 15:06,487
5/24/19 15:06,516
5/24/19 15:06,516
5/24/19 15:06,484
5/24/19 15:06,534
5/24/19 15:06,481
5/24/19 15:06,449
5/24/19 15:06,530
5/24/19 15:06,502
5/24/19 15:06,544
5/24/19 15:06,491
5/24/19 15:06,523
5/24/19 15:06,511
5/24/19 15:06,470
5/24/19 15:06,519
5/24/19 15:06,474
5/24/19 15:06,520
5/24/19 15:06,510
5/24/19 15:06,489
5/24/19 15:06,535
5/24/19 15:06,482
5/24/19 15:06,524
5/24/19 15:06,487
5/24/19 15:06,486
5/24/19 15:06,537
5/24/19 15:06,488
5/24/19 15:06,533
5/24/19 15:06,513
5/24/19 15:06,496
5/24/19 15:06,533
5/24/19 15:06,480
5/24/19 15:06,526
5/24/19 15:06,504
5/24/19 15:06,493
5/24/19 15:06,531
5/24/19 15:06,456
5/24/19 15:06,523
5/24/19 15:06,505
5/24/19 15:06,501
5/24/19 15:06,534
5/24/19 15:06,482
5/24/19 15:06,529
5/24/19 15:06,498
5/24/19 15:06,493
5/24/19 15:06,524
5/24/19 15:06,475
5/24/19 15:06,518
5/24/19 15:06,496
5/24/19 15:06,500
5/24/19 15:06,520
5/24/19 15:06,481
5/24/19 15:06,535
5/24/19 15:06,498
5/24/19 15:06,503
5/24/19 15:06,528
5/24/19 15:06,481
5/24/19 15:06,510
5/24/19 15:06,486
5/24/19 15:06,507
5/24/19 15:06,535
5/24/19 15:06,485
5/24/19 15:06,542
5/24/19 15:06,498
5/24/19 15:06,510
5/24/19 15:06,525
5/24/19 15:06,476
5/24/19 15:06,527
5/24/19 15:06,482
5/24/19 15:06,500
5/24/19 15:06,518
5/24/19 15:06,478
5/24/19 15:06,531
5/24/19 15:06,487
5/24/19 15:06,513
5/24/19 15:06,507
5/24/19 15:06,481
5/24/19 15:06,541
5/24/19 15:06,493
5/24/19 15:06,520
5/24/19 15:06,523
5/24/19 15:06,488
5/24/19 15:06,538
5/24/19 15:06,487
5/24/19 15:06,513
5/24/19 15:06,494
5/24/19 15:06,485
5/24/19 15:06,540
5/24/19 15:06,489
5/24/19 15:06,522
5/24/19 15:06,516
5/24/19 15:06,486
5/24/19 15:06,532
5/24/19 15:06,477
5/24/19 15:06,498
5/24/19 15:06,507
5/24/19 15:06,490
5/24/19 15:06,537
5/24/19 15:06,483
5/24/19 15:06,524
5/24/19 15:06,511
5/24/19 15:06,488
5/24/19 15:06,528
5/24/19 15:06,464
5/24/19 15:06,520
5/24/19 15:06,512
5/24/19 15:06,495
5/24/19 15:06,536
5/24/19 15:06,416
5/24/19 15:06,538
5/24/19 15:06,521
5/24/19 15:06,493
5/24/19 15:06,543
5/24/19 15:06,489
5/24/19 15:06,516
5/24/19 15:06,500
5/24/19 15:06,491
5/24/19 15:06,528
5/24/19 15:06,474
5/24/19 15:06,524
5/24/19 15:06,497
5/24/19 15:06,493
5/24/19 15:06,526
5/24/19 15:06,468
5/24/19 15:06,532
5/24/19 15:06,503
5/24/19 15:06,503
5/24/19 15:06,533
5/24/19 15:06,479
5/24/19 15:06,522
5/24/19 15:06,496
5/24/19 15:06,502
5/24/19 15:06,523
5/24/19 15:06,481
5/24/19 15:06,539
5/24/19 15:06,487
5/24/19 15:06,500
5/24/19 15:06,530
5/24/19 15:06,484
5/24/19 15:06,536
5/24/19 15:06,492
5/24/19 15:06,500
5/24/19 15:06,525
5/24/19 15:06,484
5/24/19 15:06,525
5/24/19 15:06,481
5/24/19 15:06,506
5/24/19 15:06,521
5/24/19 15:06,482
5/24/19 15:06,534
5/24/19 15:06,488
5/24/19 15:06,509
5/24/19 15:06,520
5/24/19 15:06,482
5/24/19 15:06,533
5/24/19 15:06,480
5/24/19 15:06,493
5/24/19 15:06,521
5/24/19 15:06,445
5/24/19 15:06,547
5/24/19 15:06,506
5/24/19 15:06,529
5/24/19 15:06,529
5/24/19 15:06,492
5/24/19 15:06,536
5/24/19 15:06,482
5/24/19 15:06,494
5/24/19 15:06,502
5/24/19 15:06,482
5/24/19 15:06,533
5/24/19 15:06,482
5/24/19 15:06,518
5/24/19 15:06,492
5/24/19 15:06,487
5/24/19 15:06,542
5/24/19 15:06,491
5/24/19 15:06,526
5/24/19 15:06,518
5/24/19 15:06,493
5/24/19 15:06,537
5/24/19 15:06,481
5/24/19 15:06,524
5/24/19 15:06,508
5/24/19 15:06,489
5/24/19 15:06,532
5/24/19 15:06,476
5/24/19 15:06,514
5/24/19 15:06,494
5/24/19 15:06,495
5/24/19 15:06,538
5/24/19 15:06,485
5/24/19 15:06,529
5/24/19 15:06,504
5/24/19 15:06,492
5/24/19 15:06,527
5/24/19 15:06,476
5/24/19 15:06,524
5/24/19 15:06,498
5/24/19 15:06,484
5/24/19 15:06,515
5/24/19 15:06,478
5/24/19 15:06,532
5/24/19 15:06,502
5/24/19 15:06,499
5/24/19 15:06,531
5/24/19 15:06,480
5/24/19 15:06,530
5/24/19 15:06,496
5/24/19 15:06,470
5/24/19 15:06,507
5/24/19 15:06,498
5/24/19 15:06,548
5/24/19 15:06,506
5/24/19 15:06,515
5/24/19 15:06,534
5/24/19 15:06,482
5/24/19 15:06,528
5/24/19 15:06,477
5/24/19 15:06,483
5/24/19 15:06,520
5/24/19 15:06,479
5/24/19 15:06,535
5/24/19 15:06,493
5/24/19 15:06,507
5/24/19 15:06,525
5/24/19 15:06,461
5/24/19 15:06,534
5/24/19 15:06,496
5/24/19 15:06,515
5/24/19 15:06,529
5/24/19 15:06,487
5/24/19 15:06,540
5/24/19 15:06,489
5/24/19 15:06,512
5/24/19 15:06,518
5/24/19 15:06,480
5/24/19 15:06,532
5/24/19 15:06,484
5/24/19 15:06,512
5/24/19 15:06,498
5/24/19 15:06,477
5/24/19 15:06,539
5/24/19 15:06,489
5/24/19 15:06,518
5/24/19 15:06,518
5/24/19 15:06,485
5/24/19 15:06,532
5/24/19 15:06,479
5/24/19 15:06,514
5/24/19 15:06,509
5/24/19 15:06,483
5/24/19 15:06,520
5/24/19 15:06,472
5/24/19 15:06,522
5/24/19 15:06,516
5/24/19 15:06,492
5/24/19 15:06,538
5/24/19 15:06,484
5/24/19 15:06,523
5/24/19 15:06,509
5/24/19 15:06,422
5/24/19 15:06,540
5/24/19 15:06,495
5/24/19 15:06,536
5/24/19 15:06,523
5/24/19 15:06,501
5/24/19 15:06,535
5/24/19 15:06,478
5/24/19 15:06,519
5/24/19 15:06,489
5/24/19 15:06,476
5/24/19 15:06,529
5/24/19 15:06,479
5/24/19 15:06,530
5/24/19 15:06,504
5/24/19 15:06,494
5/24/19 15:06,534
5/24/19 15:06,480
5/24/19 15:06,526
5/24/19 15:06,500
5/24/19 15:06,491
5/24/19 15:06,527
5/24/19 15:06,483
5/24/19 15:06,534
5/24/19 15:06,492
5/24/19 15:06,505
5/24/19 15:06,534
5/24/19 15:06,483
5/24/19 15:06,519
5/24/19 15:06,494
5/24/19 15:06,493
5/24/19 15:06,531
5/24/19 15:06,484
5/24/19 15:06,538
5/24/19 15:06,494
5/24/19 15:06,502
5/24/19 15:06,522
5/24/19 15:06,477
5/24/19 15:06,529
5/24/19 15:06,487
5/24/19 15:06,501
5/24/19 15:06,520
5/24/19 15:06,477
5/24/19 15:06,530
5/24/19 15:06,487
5/24/19 15:06,488
5/24/19 15:06,512
5/24/19 15:06,486
5/24/19 15:06,539
5/24/19 15:06,494
5/24/19 15:06,499
5/24/19 15:06,512
5/24/19 15:06,483
5/24/19 15:06,543
5/24/19 15:06,499
5/24/19 15:06,515
5/24/19 15:06,526
5/24/19 15:06,488
5/24/19 15:06,534
5/24/19 15:06,478
5/24/19 15:06,512
5/24/19 15:06,501
5/24/19 15:06,479
5/24/19 15:06,535
5/24/19 15:06,476
5/24/19 15:06,520
5/24/19 15:06,521
5/24/19 15:06,492
5/24/19 15:06,540
5/24/19 15:06,486
5/24/19 15:06,522
5/24/19 15:06,514
5/24/19 15:06,489
5/24/19 15:06,520
5/24/19 15:06,473
5/24/19 15:06,515
5/24/19 15:06,516
5/24/19 15:06,495
5/24/19 15:06,538
5/24/19 15:06,485
5/24/19 15:06,524
5/24/19 15:06,509
5/24/19 15:06,483
5/24/19 15:06,517
5/24/19 15:06,480
5/24/19 15:06,529
5/24/19 15:06,507
5/24/19 15:06,492
5/24/19 15:06,529
5/24/19 15:06,468
5/24/19 15:06,524
5/24/19 15:06,505
5/24/19 15:06,484
5/24/19 15:06,526
5/24/19 15:06,480
5/24/19 15:06,530
5/24/19 15:06,503
5/24/19 15:06,496
5/24/19 15:06,530
5/24/19 15:06,478
5/24/19 15:06,518
5/24/19 15:06,426
5/24/19 15:06,510
5/24/19 15:06,550
5/24/19 15:06,490
5/24/19 15:06,545
5/24/19 15:06,505
5/24/19 15:06,503
5/24/19 15:06,525
5/24/19 15:06,475
5/24/19 15:06,525
5/24/19 15:06,487
5/24/19 15:06,493
5/24/19 15:06,500
5/24/19 15:06,478
5/24/19 15:06,536
5/24/19 15:06,497
5/24/19 15:06,509
5/24/19 15:06,530
5/24/19 15:06,484
5/24/19 15:06,537
5/24/19 15:06,486
5/24/19 15:06,506
5/24/19 15:06,515
5/24/19 15:06,484
5/24/19 15:06,540
5/24/19 15:06,493
5/24/19 15:06,511
5/24/19 15:06,524
5/24/19 15:06,484
5/24/19 15:06,534
5/24/19 15:06,481
5/24/19 15:06,499
5/24/19 15:06,521
5/24/19 15:06,486
5/24/19 15:06,536
5/24/19 15:06,488
5/24/19 15:06,514
5/24/19 15:06,517
5/24/19 15:06,481
5/24/19 15:06,531
5/24/19 15:06,480
5/24/19 15:06,504
5/24/19 15:06,503
5/24/19 15:06,487
5/24/19 15:06,538
5/24/19 15:06,485
5/24/19 15:06,520
5/24/19 15:06,511
5/24/19 15:06,490
5/24/19 15:06,538
5/24/19 15:06,422
5/24/19 15:06,535
5/24/19 15:06,528
5/24/19 15:06,491
5/24/19 15:06,538
5/24/19 15:06,486
5/24/19 15:06,524
5/24/19 15:06,506
5/24/19 15:06,487
5/24/19 15:06,527
5/24/19 15:06,464
5/24/19 15:06,519
5/24/19 15:06,506
5/24/19 15:06,490
5/24/19 15:06,532
5/24/19 15:06,480
5/24/19 15:06,525
5/24/19 15:06,506
5/24/19 15:06,482
5/24/19 15:06,525
5/24/19 15:06,454
5/24/19 15:06,529
5/24/19 15:06,514
5/24/19 15:06,506
5/24/19 15:06,538
5/24/19 15:06,485
5/24/19 15:06,533
5/24/19 15:06,503
5/24/19 15:06,497
5/24/19 15:06,521
5/24/19 15:06,464
5/24/19 15:06,528
5/24/19 15:06,501
5/24/19 15:06,502
5/24/19 15:06,528
5/24/19 15:06,480
5/24/19 15:06,530
5/24/19 15:06,493
5/24/19 15:06,498
5/24/19 15:06,521
5/24/19 15:06,478
5/24/19 15:06,530
5/24/19 15:06,490
5/24/19 15:06,502
5/24/19 15:06,522
5/24/19 15:06,477
5/24/19 15:06,510
5/24/19 15:06,485
5/24/19 15:06,508
5/24/19 15:06,528
5/24/19 15:06,486
5/24/19 15:06,472
5/24/19 15:06,499
5/24/19 15:06,510
5/24/19 15:06,538
5/24/19 15:06,500
5/24/19 15:06,548
5/24/19 15:06,494
5/24/19 15:06,510
5/24/19 15:06,516
5/24/19 15:06,477
5/24/19 15:06,527
5/24/19 15:06,478
5/24/19 15:06,507
5/24/19 15:06,513
5/24/19 15:06,483
5/24/19 15:06,525
5/24/19 15:06,466
5/24/19 15:06,516
5/24/19 15:06,525
5/24/19 15:06,493
5/24/19 15:06,541
5/24/19 15:06,489
5/24/19 15:06,519
5/24/19 15:06,510
5/24/19 15:06,473
5/24/19 15:06,537
5/24/19 15:06,487
5/24/19 15:06,523
5/24/19 15:06,514
5/24/19 15:06,493
5/24/19 15:06,535
5/24/19 15:06,482
5/24/19 15:06,513
5/24/19 15:06,491
5/24/19 15:06,488
5/24/19 15:06,535
5/24/19 15:06,482
5/24/19 15:06,525
5/24/19 15:06,507
5/24/19 15:06,489
5/24/19 15:06,529
5/24/19 15:06,467
5/24/19 15:06,526
5/24/19 15:06,507
5/24/19 15:06,494
5/24/19 15:06,533
5/24/19 15:06,480
5/24/19 15:06,525
5/24/19 15:06,489
5/24/19 15:06,488
5/24/19 15:06,502
5/24/19 15:06,479
5/24/19 15:06,543
5/24/19 15:06,514
5/24/19 15:06,503
5/24/19 15:06,529
5/24/19 15:06,487
5/24/19 15:06,533
5/24/19 15:06,485
5/24/19 15:06,487
5/24/19 15:06,520
5/24/19 15:06,481
5/24/19 15:06,532
5/24/19 15:06,498
5/24/19 15:06,502
5/24/19 15:06,529
5/24/19 15:06,480
5/24/19 15:06,525
5/24/19 15:06,479
5/24/19 15:15,483
5/24/19 15:15,494
5/24/19 15:15,503
5/24/19 15:15,521
5/24/19 15:15,477
5/24/19 15:15,527
5/24/19 15:15,467
5/24/19 15:15,496
5/24/19 15:15,527
5/24/19 15:15,487
5/24/19 15:15,538
5/24/19 15:15,495
5/24/19 15:15,506
5/24/19 15:15,523
5/24/19 15:15,481
5/24/19 15:15,534
5/24/19 15:15,471
5/24/19 15:15,492
5/24/19 15:15,473
5/24/19 15:15,500
5/24/19 15:15,558
5/24/19 15:15,502
5/24/19 15:15,513
5/24/19 15:15,522
5/24/19 15:15,485
5/24/19 15:15,538
5/24/19 15:15,479
5/24/19 15:15,513
5/24/19 15:15,522
5/24/19 15:15,484
5/24/19 15:15,516
5/24/19 15:15,468
5/24/19 15:15,514
5/24/19 15:15,524
5/24/19 15:15,491
5/24/19 15:15,539
5/24/19 15:15,488
5/24/19 15:15,498
5/24/19 15:15,508
5/24/19 15:15,492
5/24/19 15:15,541
5/24/19 15:15,490
5/24/19 15:15,521
5/24/19 15:15,517
5/24/19 15:15,489
5/24/19 15:15,535
5/24/19 15:15,481
5/24/19 15:15,519
5/24/19 15:15,511
5/24/19 15:15,485
5/24/19 15:15,518
5/24/19 15:15,468
5/24/19 15:15,521
5/24/19 15:15,516
5/24/19 15:15,492
5/24/19 15:15,534
5/24/19 15:15,481
5/24/19 15:15,508
5/24/19 15:15,505
5/24/19 15:15,492
5/24/19 15:15,533
5/24/19 15:15,478
5/24/19 15:15,523
5/24/19 15:15,511
5/24/19 15:15,497
5/24/19 15:15,534
5/24/19 15:15,483
5/24/19 15:15,526
5/24/19 15:15,490
5/24/19 15:15,470
5/24/19 15:15,511
5/24/19 15:15,502
5/24/19 15:15,545
5/24/19 15:15,522
5/24/19 15:15,504
5/24/19 15:15,521
5/24/19 15:15,471
5/24/19 15:15,530
5/24/19 15:15,504
5/24/19 15:15,496
5/24/19 15:15,528
5/24/19 15:15,470
5/24/19 15:15,516
5/24/19 15:15,483
5/24/19 15:15,499
5/24/19 15:15,536
5/24/19 15:15,487
5/24/19 15:15,535
5/24/19 15:15,490
5/24/19 15:15,487
5/24/19 15:15,532
5/24/19 15:15,489
5/24/19 15:15,539
5/24/19 15:15,502
5/24/19 15:15,504
5/24/19 15:15,528
5/24/19 15:15,480
5/24/19 15:15,530
5/24/19 15:15,493
5/24/19 15:15,500
5/24/19 15:15,507
5/24/19 15:15,465
5/24/19 15:15,533
5/24/19 15:15,500
5/24/19 15:15,509
5/24/19 15:15,526
5/24/19 15:15,481
5/24/19 15:15,507
5/24/19 15:15,486
5/24/19 15:15,510
5/24/19 15:15,528
5/24/19 15:15,486
5/24/19 15:15,537
5/24/19 15:15,492
5/24/19 15:15,509
5/24/19 15:15,521
5/24/19 15:15,461
5/24/19 15:15,529
5/24/19 15:15,491
5/24/19 15:15,514
5/24/19 15:15,524
5/24/19 15:15,482
5/24/19 15:15,489
5/24/19 15:15,500
5/24/19 15:15,531
5/24/19 15:15,535
5/24/19 15:15,481
5/24/19 15:15,536
5/24/19 15:15,487
5/24/19 15:15,504
5/24/19 15:15,518
5/24/19 15:15,486
5/24/19 15:15,532
5/24/19 15:15,482
5/24/19 15:15,511
5/24/19 15:15,511
5/24/19 15:15,483
5/24/19 15:15,518
5/24/19 15:15,480
5/24/19 15:15,519
5/24/19 15:15,516
5/24/19 15:15,482
5/24/19 15:15,533
5/24/19 15:15,476
5/24/19 15:15,524
5/24/19 15:15,511
5/24/19 15:15,494
5/24/19 15:15,544
5/24/19 15:15,490
5/24/19 15:15,510
5/24/19 15:15,509
5/24/19 15:15,485
5/24/19 15:15,536
5/24/19 15:15,488
5/24/19 15:15,528
5/24/19 15:15,492
5/24/19 15:15,489
5/24/19 15:15,534
5/24/19 15:15,482
5/24/19 15:15,524
5/24/19 15:15,495
5/24/19 15:15,490
5/24/19 15:15,534
5/24/19 15:15,482
5/24/19 15:15,525
5/24/19 15:15,506
5/24/19 15:15,491
5/24/19 15:15,513
5/24/19 15:15,465
5/24/19 15:15,529
5/24/19 15:15,506
5/24/19 15:15,499
5/24/19 15:15,533
5/24/19 15:15,481
5/24/19 15:15,458
5/24/19 15:15,513
5/24/19 15:15,513
5/24/19 15:15,529
5/24/19 15:15,492
5/24/19 15:15,539
5/24/19 15:15,503
5/24/19 15:15,488
5/24/19 15:15,527
5/24/19 15:15,479
5/24/19 15:15,528
5/24/19 15:15,478
5/24/19 15:15,492
5/24/19 15:15,524
5/24/19 15:15,479
5/24/19 15:15,532
5/24/19 15:15,492
5/24/19 15:15,497
5/24/19 15:15,516
5/24/19 15:15,485
5/24/19 15:15,539
5/24/19 15:15,500
5/24/19 15:15,509
5/24/19 15:15,531
5/24/19 15:15,484
5/24/19 15:15,533
5/24/19 15:15,491
5/24/19 15:15,500
5/24/19 15:15,501
5/24/19 15:15,481
5/24/19 15:15,538
5/24/19 15:15,497
5/24/19 15:15,513
5/24/19 15:15,524
5/24/19 15:15,472
5/24/19 15:15,533
5/24/19 15:15,490
5/24/19 15:15,499
5/24/19 15:15,511
5/24/19 15:15,481
5/24/19 15:15,530
5/24/19 15:15,492
5/24/19 15:15,517
5/24/19 15:15,508
5/24/19 15:15,475
5/24/19 15:15,539
5/24/19 15:15,492
5/24/19 15:15,520
5/24/19 15:15,521
5/24/19 15:15,487
5/24/19 15:15,534
5/24/19 15:15,483
5/24/19 15:15,464
5/24/19 15:15,514
5/24/19 15:15,488
5/24/19 15:15,548
5/24/19 15:15,502
5/24/19 15:15,531
5/24/19 15:15,517
5/24/19 15:15,487
5/24/19 15:15,533
5/24/19 15:15,475
5/24/19 15:15,512
5/24/19 15:15,504
5/24/19 15:15,482
5/24/19 15:15,503
5/24/19 15:15,471
5/24/19 15:15,524
5/24/19 15:15,495
5/24/19 15:15,493
5/24/19 15:15,535
5/24/19 15:15,486
5/24/19 15:15,535
5/24/19 15:15,517
5/24/19 15:15,499
5/24/19 15:15,521
5/24/19 15:15,478
5/24/19 15:15,527
5/24/19 15:15,507
5/24/19 15:15,496
5/24/19 15:15,533
5/24/19 15:15,482
5/24/19 15:15,526
5/24/19 15:15,499
5/24/19 15:15,490
5/24/19 15:15,516
5/24/19 15:15,479
5/24/19 15:15,531
5/24/19 15:15,504
5/24/19 15:15,498
5/24/19 15:15,525
5/24/19 15:15,479
5/24/19 15:15,526
5/24/19 15:15,491
5/24/19 15:15,487
5/24/19 15:15,530
5/24/19 15:15,486
5/24/19 15:15,533
5/24/19 15:15,489
5/24/19 15:15,483
5/24/19 15:15,528
5/24/19 15:15,485
5/24/19 15:15,537
5/24/19 15:15,500
5/24/19 15:15,480
5/24/19 15:15,514
5/24/19 15:15,497
5/24/19 15:15,548
5/24/19 15:15,507
5/24/19 15:15,514
5/24/19 15:15,529
5/24/19 15:15,468
5/24/19 15:15,519
5/24/19 15:15,478
5/24/19 15:15,503
5/24/19 15:15,523
5/24/19 15:15,482
5/24/19 15:15,534
5/24/19 15:15,489
5/24/19 15:15,506
5/24/19 15:15,512
5/24/19 15:15,463
5/24/19 15:15,535
5/24/19 15:15,494
5/24/19 15:15,517
5/24/19 15:15,524
5/24/19 15:15,481
5/24/19 15:15,541
5/24/19 15:15,480
5/24/19 15:15,508
5/24/19 15:15,522
5/24/19 15:15,479
5/24/19 15:15,537
5/24/19 15:15,493
5/24/19 15:15,520
5/24/19 15:15,522
5/24/19 15:15,487
5/24/19 15:15,516
5/24/19 15:15,474
5/24/19 15:15,517
5/24/19 15:15,520
5/24/19 15:15,489
5/24/19 15:15,535
5/24/19 15:15,483
5/24/19 15:15,516
5/24/19 15:15,512
5/24/19 15:15,484
5/24/19 15:15,531
5/24/19 15:15,456
5/24/19 15:15,511
5/24/19 15:15,514
5/24/19 15:15,494
5/24/19 15:15,538
5/24/19 15:15,485
5/24/19 15:15,524
5/24/19 15:15,509
5/24/19 15:15,418
5/24/19 15:15,537
5/24/19 15:15,500
5/24/19 15:15,539
5/24/19 15:15,522
5/24/19 15:15,501
5/24/19 15:15,518
5/24/19 15:15,474
5/24/19 15:15,527
5/24/19 15:15,506
5/24/19 15:15,493
5/24/19 15:15,522
5/24/19 15:15,475
5/24/19 15:15,528
5/24/19 15:15,505
5/24/19 15:15,480
5/24/19 15:15,527
5/24/19 15:15,481
5/24/19 15:15,532
5/24/19 15:15,506
5/24/19 15:15,499
5/24/19 15:15,529
5/24/19 15:15,480
5/24/19 15:15,531
5/24/19 15:15,482
5/24/19 15:15,488
5/24/19 15:15,531
5/24/19 15:15,489
5/24/19 15:15,537
5/24/19 15:15,500
5/24/19 15:15,503
5/24/19 15:15,524
5/24/19 15:15,475
5/24/19 15:15,518
5/24/19 15:15,495
5/24/19 15:15,506
5/24/19 15:15,529
5/24/19 15:15,482
5/24/19 15:15,533
5/24/19 15:15,491
5/24/19 15:15,491
5/24/19 15:15,521
5/24/19 15:15,483
5/24/19 15:15,535
5/24/19 15:15,490
5/24/19 15:15,506
5/24/19 15:15,509
5/24/19 15:15,475
5/24/19 15:15,521
5/24/19 15:15,491
5/24/19 15:15,514
5/24/19 15:15,479
5/24/19 15:15,484
5/24/19 15:15,538
5/24/19 15:15,499
5/24/19 15:15,530
5/24/19 15:15,533
5/24/19 15:15,493
5/24/19 15:15,535
5/24/19 15:15,466
5/24/19 15:15,511
5/24/19 15:15,518
5/24/19 15:15,485
5/24/19 15:15,533
5/24/19 15:15,483
5/24/19 15:15,515
5/24/19 15:15,515
5/24/19 15:15,482
5/24/19 15:15,532
5/24/19 15:15,474
5/24/19 15:15,503
5/24/19 15:15,518
5/24/19 15:15,495
5/24/19 15:15,540
5/24/19 15:15,487
5/24/19 15:15,524
5/24/19 15:15,513
5/24/19 15:15,488
5/24/19 15:15,532
5/24/19 15:15,481
5/24/19 15:15,513
5/24/19 15:15,492
5/24/19 15:15,493
5/24/19 15:15,538
5/24/19 15:15,486
5/24/19 15:15,527
5/24/19 15:15,508
5/24/19 15:15,483
5/24/19 15:15,511
5/24/19 15:15,478
5/24/19 15:15,527
5/24/19 15:15,510
5/24/19 15:15,495
5/24/19 15:15,534
5/24/19 15:15,481
5/24/19 15:15,526
5/24/19 15:15,477
5/24/19 15:15,494
5/24/19 15:15,536
5/24/19 15:15,486
5/24/19 15:15,532
5/24/19 15:15,491
5/24/19 15:15,476
5/24/19 15:15,505
5/24/19 15:15,501
5/24/19 15:15,551
5/24/19 15:15,515
5/24/19 15:15,510
5/24/19 15:15,532
5/24/19 15:15,454
5/24/19 15:15,526
5/24/19 15:15,498
5/24/19 15:15,497
5/24/19 15:15,524
5/24/19 15:15,478
5/24/19 15:15,529
5/24/19 15:15,490
5/24/19 15:15,502
5/24/19 15:15,515
5/24/19 15:15,465
5/24/19 15:15,537
5/24/19 15:15,502
5/24/19 15:15,511
5/24/19 15:15,530
5/24/19 15:15,486
5/24/19 15:15,535
5/24/19 15:15,488
5/24/19 15:15,496
5/24/19 15:15,513
5/24/19 15:15,487
5/24/19 15:15,541
5/24/19 15:15,496
5/24/19 15:15,512
5/24/19 15:15,525
5/24/19 15:15,482
5/24/19 15:15,534
5/24/19 15:15,484
5/24/19 15:15,508
5/24/19 15:15,516
5/24/19 15:15,478
5/24/19 15:15,505
5/24/19 15:15,481
5/24/19 15:15,516
5/24/19 15:15,520
5/24/19 15:15,486
5/24/19 15:15,538
5/24/19 15:15,486
5/24/19 15:15,508
5/24/19 15:15,500
5/24/19 15:15,489
5/24/19 15:15,539
5/24/19 15:15,489
5/24/19 15:15,522
5/24/19 15:15,515
5/24/19 15:15,416
5/24/19 15:15,532
5/24/19 15:15,497
5/24/19 15:15,534
5/24/19 15:15,527
5/24/19 15:15,502
5/24/19 15:15,538
5/24/19 15:15,471
5/24/19 15:15,516
5/24/19 15:15,499
5/24/19 15:15,487
5/24/19 15:15,531
5/24/19 15:15,479
5/24/19 15:15,522
5/24/19 15:15,495
5/24/19 15:15,475
5/24/19 15:15,536
5/24/19 15:15,487
5/24/19 15:15,534
5/24/19 15:15,511
5/24/19 15:15,496
5/24/19 15:15,534
5/24/19 15:15,480
5/24/19 15:15,526
5/24/19 15:15,504
5/24/19 15:15,492
5/24/19 15:15,528
5/24/19 15:15,475
5/24/19 15:15,516
5/24/19 15:15,485
5/24/19 15:15,495
5/24/19 15:15,533
5/24/19 15:15,483
5/24/19 15:15,531
5/24/19 15:15,499
5/24/19 15:15,499
5/24/19 15:15,527
5/24/19 15:15,472
5/24/19 15:15,511
5/24/19 15:15,482
5/24/19 15:15,496
5/24/19 15:15,533
5/24/19 15:15,488
5/24/19 15:15,540
5/24/19 15:15,501
5/24/19 15:15,505
5/24/19 15:15,528
5/24/19 15:15,482
5/24/19 15:15,532
5/24/19 15:15,491
5/24/19 15:15,493
5/24/19 15:15,485
5/24/19 15:15,490
5/24/19 15:15,550
5/24/19 15:15,487
5/24/19 15:15,513
5/24/19 15:15,531
5/24/19 15:15,483
5/24/19 15:15,533
5/24/19 15:15,492
5/24/19 15:15,509
5/24/19 15:15,513
5/24/19 15:15,472
5/24/19 15:15,531
5/24/19 15:15,486
5/24/19 15:15,500
5/24/19 15:15,523
5/24/19 15:15,490
5/24/19 15:15,539
5/24/19 15:15,489
5/24/19 15:15,515
5/24/19 15:15,517
5/24/19 15:15,472
5/24/19 15:15,527
5/24/19 15:15,485
5/24/19 15:15,511
5/24/19 15:15,516
5/24/19 15:15,491
5/24/19 15:15,540
5/24/19 15:15,489
5/24/19 15:15,520
5/24/19 15:15,514
5/24/19 15:15,483
5/24/19 15:15,523
5/24/19 15:15,482
5/24/19 15:15,509
5/24/19 15:15,514
5/24/19 15:15,494
5/24/19 15:15,536
5/24/19 15:15,483
5/24/19 15:15,520
5/24/19 15:15,492
5/24/19 15:15,477
5/24/19 15:15,534
5/24/19 15:15,485
5/24/19 15:15,528
5/24/19 15:15,511
5/24/19 15:15,494
5/24/19 15:15,524
5/24/19 15:15,465
5/24/19 15:15,527
5/24/19 15:15,510
5/24/19 15:15,487
5/24/19 15:15,516
5/24/19 15:15,493
5/24/19 15:15,540
5/24/19 15:15,514
5/24/19 15:15,503
5/24/19 15:15,534
5/24/19 15:15,479
5/24/19 15:15,522
5/24/19 15:15,493
5/24/19 15:15,489
5/24/19 15:15,521
5/24/19 15:15,471
5/24/19 15:15,508
5/24/19 15:24,525
5/24/19 15:24,537
5/24/19 15:24,491
5/24/19 15:24,538
5/24/19 15:24,491
5/24/19 15:24,498
5/24/19 15:24,510
5/24/19 15:24,475
5/24/19 15:24,531
5/24/19 15:24,489
5/24/19 15:24,502
5/24/19 15:24,512
5/24/19 15:24,470
5/24/19 15:24,540
5/24/19 15:24,496
5/24/19 15:24,515
5/24/19 15:24,527
5/24/19 15:24,485
5/24/19 15:24,536
5/24/19 15:24,489
5/24/19 15:24,496
5/24/19 15:24,519
5/24/19 15:24,474
5/24/19 15:24,538
5/24/19 15:24,491
5/24/19 15:24,516
5/24/19 15:24,520
5/24/19 15:24,486
5/24/19 15:24,538
5/24/19 15:24,484
5/24/19 15:24,512
5/24/19 15:24,513
5/24/19 15:24,468
5/24/19 15:24,528
5/24/19 15:24,481
5/24/19 15:24,517
5/24/19 15:24,506
5/24/19 15:24,485
5/24/19 15:24,537
5/24/19 15:24,484
5/24/19 15:24,508
5/24/19 15:24,514
5/24/19 15:24,480
5/24/19 15:24,538
5/24/19 15:24,487
5/24/19 15:24,511
5/24/19 15:24,509
5/24/19 15:24,492
5/24/19 15:24,475
5/24/19 15:24,499
5/24/19 15:24,542
5/24/19 15:24,520
5/24/19 15:24,487
5/24/19 15:24,543
5/24/19 15:24,487
5/24/19 15:24,527
5/24/19 15:24,503
5/24/19 15:24,473
5/24/19 15:24,524
5/24/19 15:24,473
5/24/19 15:24,522
5/24/19 15:24,501
5/24/19 15:24,492
5/24/19 15:24,529
5/24/19 15:24,478
5/24/19 15:24,525
5/24/19 15:24,483
5/24/19 15:24,493
5/24/19 15:24,536
5/24/19 15:24,485
5/24/19 15:24,534
5/24/19 15:24,502
5/24/19 15:24,500
5/24/19 15:24,532
5/24/19 15:24,475
5/24/19 15:24,528
5/24/19 15:24,499
5/24/19 15:24,503
5/24/19 15:24,530
5/24/19 15:24,467
5/24/19 15:24,532
5/24/19 15:24,495
5/24/19 15:24,500
5/24/19 15:24,515
5/24/19 15:24,481
5/24/19 15:24,535
5/24/19 15:24,493
5/24/19 15:24,492
5/24/19 15:24,508
5/24/19 15:24,483
5/24/19 15:24,540
5/24/19 15:24,496
5/24/19 15:24,509
5/24/19 15:24,525
5/24/19 15:24,482
5/24/19 15:24,533
5/24/19 15:24,487
5/24/19 15:24,507
5/24/19 15:24,518
5/24/19 15:24,429
5/24/19 15:24,531
5/24/19 15:24,506
5/24/19 15:24,531
5/24/19 15:24,529
5/24/19 15:24,492
5/24/19 15:24,541
5/24/19 15:24,488
5/24/19 15:24,491
5/24/19 15:24,506
5/24/19 15:24,482
5/24/19 15:24,534
5/24/19 15:24,483
5/24/19 15:24,514
5/24/19 15:24,515
5/24/19 15:24,486
5/24/19 15:24,536
5/24/19 15:24,463
5/24/19 15:24,510
5/24/19 15:24,518
5/24/19 15:24,494
5/24/19 15:24,541
5/24/19 15:24,487
5/24/19 15:24,526
5/24/19 15:24,514
5/24/19 15:24,488
5/24/19 15:24,534
5/24/19 15:24,480
5/24/19 15:24,521
5/24/19 15:24,509
5/24/19 15:24,490
5/24/19 15:24,533
5/24/19 15:24,461
5/24/19 15:24,516
5/24/19 15:24,509
5/24/19 15:24,495
5/24/19 15:24,536
5/24/19 15:24,479
5/24/19 15:24,524
5/24/19 15:24,502
5/24/19 15:24,492
5/24/19 15:24,529
5/24/19 15:24,476
5/24/19 15:24,525
5/24/19 15:24,477
5/24/19 15:24,495
5/24/19 15:24,535
5/24/19 15:24,485
5/24/19 15:24,533
5/24/19 15:24,502
5/24/19 15:24,499
5/24/19 15:24,529
5/24/19 15:24,417
5/24/19 15:24,547
5/24/19 15:24,513
5/24/19 15:24,512
5/24/19 15:24,532
5/24/19 15:24,470
5/24/19 15:24,523
5/24/19 15:24,494
5/24/19 15:24,503
5/24/19 15:24,525
5/24/19 15:24,477
5/24/19 15:24,529
5/24/19 15:24,489
5/24/19 15:24,500
5/24/19 15:24,507
5/24/19 15:24,472
5/24/19 15:24,538
5/24/19 15:24,498
5/24/19 15:24,511
5/24/19 15:24,529
5/24/19 15:24,484
5/24/19 15:24,524
5/24/19 15:24,481
5/24/19 15:24,513
5/24/19 15:24,529
5/24/19 15:24,486
5/24/19 15:24,514
5/24/19 15:24,490
5/24/19 15:24,522
5/24/19 15:24,529
5/24/19 15:24,487
5/24/19 15:24,538
5/24/19 15:24,487
5/24/19 15:24,513
5/24/19 15:24,517
5/24/19 15:24,482
5/24/19 15:24,530
5/24/19 15:24,478
5/24/19 15:24,510
5/24/19 15:24,510
5/24/19 15:24,481
5/24/19 15:24,531
5/24/19 15:24,478
5/24/19 15:24,515
5/24/19 15:24,506
5/24/19 15:24,470
5/24/19 15:24,535
5/24/19 15:24,486
5/24/19 15:24,525
5/24/19 15:24,515
5/24/19 15:24,487
5/24/19 15:24,468
5/24/19 15:24,495
5/24/19 15:24,542
5/24/19 15:24,526
5/24/19 15:24,504
5/24/19 15:24,547
5/24/19 15:24,484
5/24/19 15:24,523
5/24/19 15:24,487
5/24/19 15:24,482
5/24/19 15:24,526
5/24/19 15:24,476
5/24/19 15:24,523
5/24/19 15:24,491
5/24/19 15:24,492
5/24/19 15:24,535
5/24/19 15:24,480
5/24/19 15:24,530
5/24/19 15:24,505
5/24/19 15:24,495
5/24/19 15:24,532
5/24/19 15:24,478
5/24/19 15:24,519
5/24/19 15:24,492
5/24/19 15:24,501
5/24/19 15:24,534
5/24/19 15:24,483
5/24/19 15:24,528
5/24/19 15:24,486
5/24/19 15:24,504
5/24/19 15:24,534
5/24/19 15:24,484
5/24/19 15:24,538
5/24/19 15:24,497
5/24/19 15:24,501
5/24/19 15:24,524
5/24/19 15:24,477
5/24/19 15:24,508
5/24/19 15:24,486
5/24/19 15:24,505
5/24/19 15:24,529
5/24/19 15:24,482
5/24/19 15:24,536
5/24/19 15:24,491
5/24/19 15:24,505
5/24/19 15:24,524
5/24/19 15:24,480
5/24/19 15:24,532
5/24/19 15:24,488
5/24/19 15:24,492
5/24/19 15:24,511
5/24/19 15:24,418
5/24/19 15:24,556
5/24/19 15:24,507
5/24/19 15:24,525
5/24/19 15:24,534
5/24/19 15:24,491
5/24/19 15:24,516
5/24/19 15:24,481
5/24/19 15:24,511
5/24/19 15:24,518
5/24/19 15:24,482
5/24/19 15:24,534
5/24/19 15:24,482
5/24/19 15:24,509
5/24/19 15:24,513
5/24/19 15:24,483
5/24/19 15:24,531
5/24/19 15:24,465
5/24/19 15:24,518
5/24/19 15:24,521
5/24/19 15:24,492
5/24/19 15:24,539
5/24/19 15:24,485
5/24/19 15:24,521
5/24/19 15:24,516
5/24/19 15:24,489
5/24/19 15:24,535
5/24/19 15:24,479
5/24/19 15:24,522
5/24/19 15:24,500
5/24/19 15:24,473
5/24/19 15:24,534
5/24/19 15:24,484
5/24/19 15:24,528
5/24/19 15:24,508
5/24/19 15:24,492
5/24/19 15:24,524
5/24/19 15:24,466
5/24/19 15:24,525
5/24/19 15:24,509
5/24/19 15:24,496
5/24/19 15:24,534
5/24/19 15:24,479
5/24/19 15:24,521
5/24/19 15:24,490
5/24/19 15:24,496
5/24/19 15:24,536
5/24/19 15:24,484
5/24/19 15:24,532
5/24/19 15:24,501
5/24/19 15:24,477
5/24/19 15:24,521
5/24/19 15:24,494
5/24/19 15:24,543
5/24/19 15:24,502
5/24/19 15:24,508
5/24/19 15:24,535
5/24/19 15:24,465
5/24/19 15:24,515
5/24/19 15:24,493
5/24/19 15:24,498
5/24/19 15:24,527
5/24/19 15:24,477
5/24/19 15:24,530
5/24/19 15:24,491
5/24/19 15:24,491
5/24/19 15:24,526
5/24/19 15:24,482
5/24/19 15:24,538
5/24/19 15:24,480
5/24/19 15:24,504
5/24/19 15:24,526
5/24/19 15:24,477
5/24/19 15:24,525
5/24/19 15:24,492
5/24/19 15:24,515
5/24/19 15:24,530
5/24/19 15:24,487
5/24/19 15:24,538
5/24/19 15:24,490
5/24/19 15:24,509
5/24/19 15:24,513
5/24/19 15:24,484
5/24/19 15:24,536
5/24/19 15:24,473
5/24/19 15:24,508
5/24/19 15:24,518
5/24/19 15:24,483
5/24/19 15:24,534
5/24/19 15:24,483
5/24/19 15:24,513
5/24/19 15:24,515
5/24/19 15:24,481
5/24/19 15:24,526
5/24/19 15:24,471
5/24/19 15:24,516
5/24/19 15:24,519
5/24/19 15:24,489
5/24/19 15:24,538
5/24/19 15:24,483
5/24/19 15:24,518
5/24/19 15:24,510
5/24/19 15:24,447
5/24/19 15:24,531
5/24/19 15:24,498
5/24/19 15:24,535
5/24/19 15:24,525
5/24/19 15:24,498
5/24/19 15:24,538
5/24/19 15:24,469
5/24/19 15:24,510
5/24/19 15:24,500
5/24/19 15:24,489
5/24/19 15:24,533
5/24/19 15:24,477
5/24/19 15:24,524
5/24/19 15:24,503
5/24/19 15:24,491
5/24/19 15:24,532
5/24/19 15:24,478
5/24/19 15:24,528
5/24/19 15:24,497
5/24/19 15:24,481
5/24/19 15:24,537
5/24/19 15:24,485
5/24/19 15:24,535
5/24/19 15:24,505
5/24/19 15:24,499
5/24/19 15:24,534
5/24/19 15:24,470
5/24/19 15:24,514
5/24/19 15:24,499
5/24/19 15:24,502
5/24/19 15:24,533
5/24/19 15:24,482
5/24/19 15:24,532
5/24/19 15:24,489
5/24/19 15:24,503
5/24/19 15:24,516
5/24/19 15:24,473
5/24/19 15:24,532
5/24/19 15:24,497
5/24/19 15:24,504
5/24/19 15:24,526
5/24/19 15:24,478
5/24/19 15:24,532
5/24/19 15:24,490
5/24/19 15:24,502
5/24/19 15:24,523
5/24/19 15:24,472
5/24/19 15:24,534
5/24/19 15:24,475
5/24/19 15:24,504
5/24/19 15:24,464
5/24/19 15:24,502
5/24/19 15:24,555
5/24/19 15:24,501
5/24/19 15:24,514
5/24/19 15:24,519
5/24/19 15:24,488
5/24/19 15:24,537
5/24/19 15:24,471
5/24/19 15:24,508
5/24/19 15:24,516
5/24/19 15:24,471
5/24/19 15:24,536
5/24/19 15:24,487
5/24/19 15:24,515
5/24/19 15:24,514
5/24/19 15:24,477
5/24/19 15:24,535
5/24/19 15:24,487
5/24/19 15:24,509
5/24/19 15:24,510
5/24/19 15:24,484
5/24/19 15:24,542
5/24/19 15:24,491
5/24/19 15:24,527
5/24/19 15:24,517
5/24/19 15:24,489
5/24/19 15:24,536
5/24/19 15:24,482
5/24/19 15:24,520
5/24/19 15:24,500
5/24/19 15:24,474
5/24/19 15:24,534
5/24/19 15:24,483
5/24/19 15:24,526
5/24/19 15:24,510
5/24/19 15:24,489
5/24/19 15:24,533
5/24/19 15:24,476
5/24/19 15:24,520
5/24/19 15:24,503
5/24/19 15:24,490
5/24/19 15:24,530
5/24/19 15:24,456
5/24/19 15:24,521
5/24/19 15:24,507
5/24/19 15:24,498
5/24/19 15:24,534
5/24/19 15:24,481
5/24/19 15:24,514
5/24/19 15:24,498
5/24/19 15:24,435
5/24/19 15:24,549
5/24/19 15:24,496
5/24/19 15:24,547
5/24/19 15:24,502
5/24/19 15:24,508
5/24/19 15:24,534
5/24/19 15:24,477
5/24/19 15:24,526
5/24/19 15:24,479
5/24/19 15:24,480
5/24/19 15:24,520
5/24/19 15:24,478
5/24/19 15:24,534
5/24/19 15:24,496
5/24/19 15:24,496
5/24/19 15:24,524
5/24/19 15:24,474
5/24/19 15:24,534
5/24/19 15:24,498
5/24/19 15:24,514
5/24/19 15:24,528
5/24/19 15:24,482
5/24/19 15:24,527
5/24/19 15:24,486
5/24/19 15:24,513
5/24/19 15:24,529
5/24/19 15:24,487
5/24/19 15:24,539
5/24/19 15:24,488
5/24/19 15:24,513
5/24/19 15:24,522
5/24/19 15:24,482
5/24/19 15:24,533
5/24/19 15:24,482
5/24/19 15:24,491
5/24/19 15:24,508
5/24/19 15:24,484
5/24/19 15:24,536
5/24/19 15:24,487
5/24/19 15:24,518
5/24/19 15:24,518
5/24/19 15:24,485
5/24/19 15:24,534
5/24/19 15:24,481
5/24/19 15:24,509
5/24/19 15:24,495
5/24/19 15:24,486
5/24/19 15:24,538
5/24/19 15:24,485
5/24/19 15:24,524
5/24/19 15:24,496
5/24/19 15:24,480
5/24/19 15:24,526
5/24/19 15:24,492
5/24/19 15:24,537
5/24/19 15:24,519
5/24/19 15:24,501
5/24/19 15:24,542
5/24/19 15:24,480
5/24/19 15:24,518
5/24/19 15:24,500
5/24/19 15:24,483
5/24/19 15:24,525
5/24/19 15:24,472
5/24/19 15:24,507
5/24/19 15:24,493
5/24/19 15:24,494
5/24/19 15:24,538
5/24/19 15:24,483
5/24/19 15:24,531
5/24/19 15:24,506
5/24/19 15:24,498
5/24/19 15:24,533
5/24/19 15:24,480
5/24/19 15:24,528
5/24/19 15:24,499
5/24/19 15:24,495
5/24/19 15:24,527
5/24/19 15:24,476
5/24/19 15:24,531
5/24/19 15:24,497
5/24/19 15:24,494
5/24/19 15:24,508
5/24/19 15:24,479
5/24/19 15:24,535
5/24/19 15:24,499
5/24/19 15:24,502
5/24/19 15:24,527
5/24/19 15:24,478
5/24/19 15:24,532
5/24/19 15:24,489
5/24/19 15:24,501
5/24/19 15:24,522
5/24/19 15:24,479
5/24/19 15:24,532
5/24/19 15:24,485
5/24/19 15:24,492
5/24/19 15:24,522
5/24/19 15:24,484
5/24/19 15:24,538
5/24/19 15:24,492
5/24/19 15:24,511
5/24/19 15:24,516
5/24/19 15:24,482
5/24/19 15:24,484
5/24/19 15:24,500
5/24/19 15:24,524
5/24/19 15:24,532
5/24/19 15:24,488
5/24/19 15:24,543
5/24/19 15:24,491
5/24/19 15:24,515
5/24/19 15:24,515
5/24/19 15:24,480
5/24/19 15:24,516
5/24/19 15:24,476
5/24/19 15:24,511
5/24/19 15:24,514
5/24/19 15:24,484
5/24/19 15:24,530
5/24/19 15:24,485
5/24/19 15:24,520
5/24/19 15:24,517
5/24/19 15:24,488
5/24/19 15:24,538
5/24/19 15:24,483
5/24/19 15:24,520
5/24/19 15:24,509
5/24/19 15:24,475
5/24/19 15:24,524
5/24/19 15:24,482
5/24/19 15:24,527
5/24/19 15:24,513
5/24/19 15:24,495
5/24/19 15:24,537
5/24/19 15:24,468
5/24/19 15:24,524
5/24/19 15:24,505
5/24/19 15:24,490
5/24/19 15:24,537
5/24/19 15:24,481
5/24/19 15:24,528
5/24/19 15:33,491
5/24/19 15:33,493
5/24/19 15:33,511
5/24/19 15:33,509
5/24/19 15:33,517
5/24/19 15:33,507
5/24/19 15:33,509
5/24/19 15:33,511
5/24/19 15:33,504
5/24/19 15:33,510
5/24/19 15:33,426
5/24/19 15:33,518
5/24/19 15:33,528
5/24/19 15:33,518
5/24/19 15:33,525
5/24/19 15:33,510
5/24/19 15:33,513
5/24/19 15:33,508
5/24/19 15:33,499
5/24/19 15:33,505
5/24/19 15:33,494
5/24/19 15:33,502
5/24/19 15:33,476
5/24/19 15:33,496
5/24/19 15:33,514
5/24/19 15:33,508
5/24/19 15:33,517
5/24/19 15:33,512
5/24/19 15:33,506
5/24/19 15:33,515
5/24/19 15:33,504
5/24/19 15:33,510
5/24/19 15:33,507
5/24/19 15:33,501
5/24/19 15:33,503
5/24/19 15:33,488
5/24/19 15:33,510
5/24/19 15:33,509
5/24/19 15:33,510
5/24/19 15:33,518
5/24/19 15:33,504
5/24/19 15:33,511
5/24/19 15:33,497
5/24/19 15:33,506
5/24/19 15:33,515
5/24/19 15:33,503
5/24/19 15:33,511
5/24/19 15:33,502
5/24/19 15:33,501
5/24/19 15:33,493
5/24/19 15:33,493
5/24/19 15:33,508
5/24/19 15:33,504
5/24/19 15:33,506
5/24/19 15:33,511
5/24/19 15:33,501
5/24/19 15:33,500
5/24/19 15:33,507
5/24/19 15:33,511
5/24/19 15:33,448
5/24/19 15:33,514
5/24/19 15:33,527
5/24/19 15:33,513
5/24/19 15:33,521
5/24/19 15:33,519
5/24/19 15:33,497
5/24/19 15:33,513
5/24/19 15:33,503
5/24/19 15:33,502
5/24/19 15:33,506
5/24/19 15:33,496
5/24/19 15:33,507
5/24/19 15:33,498
5/24/19 15:33,504
5/24/19 15:33,507
5/24/19 15:33,502
5/24/19 15:33,503
5/24/19 15:33,490
5/24/19 15:33,513
5/24/19 15:33,516
5/24/19 15:33,510
5/24/19 15:33,518
5/24/19 15:33,506
5/24/19 15:33,484
5/24/19 15:33,507
5/24/19 15:33,509
5/24/19 15:33,519
5/24/19 15:33,509
5/24/19 15:33,514
5/24/19 15:33,511
5/24/19 15:33,503
5/24/19 15:33,509
5/24/19 15:33,497
5/24/19 15:33,506
5/24/19 15:33,505
5/24/19 15:33,499
5/24/19 15:33,492
5/24/19 15:33,488
5/24/19 15:33,514
5/24/19 15:33,514
5/24/19 15:33,509
5/24/19 15:33,517
5/24/19 15:33,506
5/24/19 15:33,510
5/24/19 15:33,506
5/24/19 15:33,500
5/24/19 15:33,507
5/24/19 15:33,499
5/24/19 15:33,427
5/24/19 15:33,515
5/24/19 15:33,526
5/24/19 15:33,527
5/24/19 15:33,512
5/24/19 15:33,521
5/24/19 15:33,513
5/24/19 15:33,507
5/24/19 15:33,508
5/24/19 15:33,495
5/24/19 15:33,503
5/24/19 15:33,500
5/24/19 15:33,499
5/24/19 15:33,507
5/24/19 15:33,498
5/24/19 15:33,506
5/24/19 15:33,502
5/24/19 15:33,505
5/24/19 15:33,513
5/24/19 15:33,504
5/24/19 15:33,512
5/24/19 15:33,505
5/24/19 15:33,508
5/24/19 15:33,509
5/24/19 15:33,481
5/24/19 15:33,510
5/24/19 15:33,510
5/24/19 15:33,513
5/24/19 15:33,518
5/24/19 15:33,505
5/24/19 15:33,505
5/24/19 15:33,507
5/24/19 15:33,512
5/24/19 15:33,513
5/24/19 15:33,503
5/24/19 15:33,511
5/24/19 15:33,501
5/24/19 15:33,506
5/24/19 15:33,505
5/24/19 15:33,497
5/24/19 15:33,493
5/24/19 15:33,495
5/24/19 15:33,505
5/24/19 15:33,509
5/24/19 15:33,505
5/24/19 15:33,514
5/24/19 15:33,504
5/24/19 15:33,499
5/24/19 15:33,492
5/24/19 15:33,478
5/24/19 15:33,535
5/24/19 15:33,523
5/24/19 15:33,523
5/24/19 15:33,515
5/24/19 15:33,511
5/24/19 15:33,515
5/24/19 15:33,501
5/24/19 15:33,503
5/24/19 15:33,500
5/24/19 15:33,487
5/24/19 15:33,490
5/24/19 15:33,498
5/24/19 15:33,510
5/24/19 15:33,510
5/24/19 15:33,509
5/24/19 15:33,514
5/24/19 15:33,505
5/24/19 15:33,511
5/24/19 15:33,510
5/24/19 15:33,503
5/24/19 15:33,509
5/24/19 15:33,502
5/24/19 15:33,510
5/24/19 15:33,506
5/24/19 15:33,504
5/24/19 15:33,509
5/24/19 15:33,497
5/24/19 15:33,490
5/24/19 15:33,509
5/24/19 15:33,513
5/24/19 15:33,516
5/24/19 15:33,507
5/24/19 15:33,512
5/24/19 15:33,507
5/24/19 15:33,505
5/24/19 15:33,508
5/24/19 15:33,500
5/24/19 15:33,497
5/24/19 15:33,491
5/24/19 15:33,507
5/24/19 15:33,517
5/24/19 15:33,507
5/24/19 15:33,516
5/24/19 15:33,507
5/24/19 15:33,506
5/24/19 15:33,510
5/24/19 15:33,476
5/24/19 15:33,507
5/24/19 15:33,454
5/24/19 15:33,529
5/24/19 15:33,528
5/24/19 15:33,516
5/24/19 15:33,517
5/24/19 15:33,502
5/24/19 15:33,512
5/24/19 15:33,514
5/24/19 15:33,501
5/24/19 15:33,508
5/24/19 15:33,496
5/24/19 15:33,500
5/24/19 15:33,503
5/24/19 15:33,497
5/24/19 15:33,509
5/24/19 15:33,499
5/24/19 15:33,490
5/24/19 15:33,503
5/24/19 15:33,501
5/24/19 15:33,514
5/24/19 15:33,507
5/24/19 15:33,509
5/24/19 15:33,510
5/24/19 15:33,496
5/24/19 15:33,514
5/24/19 15:33,508
5/24/19 15:33,514
5/24/19 15:33,505
5/24/19 15:33,495
5/24/19 15:33,510
5/24/19 15:33,495
5/24/19 15:33,514
5/24/19 15:33,516
5/24/19 15:33,509
5/24/19 15:33,514
5/24/19 15:33,502
5/24/19 15:33,508
5/24/19 15:33,494
5/24/19 15:33,484
5/24/19 15:33,510
5/24/19 15:33,507
5/24/19 15:33,515
5/24/19 15:33,509
5/24/19 15:33,507
5/24/19 15:33,512
5/24/19 15:33,499
5/24/19 15:33,509
5/24/19 15:33,503
5/24/19 15:33,462
5/24/19 15:33,498
5/24/19 15:33,519
5/24/19 15:33,528
5/24/19 15:33,524
5/24/19 15:33,518
5/24/19 15:33,517
5/24/19 15:33,503
5/24/19 15:33,505
5/24/19 15:33,499
5/24/19 15:33,481
5/24/19 15:33,491
5/24/19 15:33,499
5/24/19 15:33,514
5/24/19 15:33,507
5/24/19 15:33,509
5/24/19 15:33,512
5/24/19 15:33,504
5/24/19 15:33,513
5/24/19 15:33,505
5/24/19 15:33,507
5/24/19 15:33,511
5/24/19 15:33,502
5/24/19 15:33,511
5/24/19 15:33,504
5/24/19 15:33,504
5/24/19 15:33,488
5/24/19 15:33,500
5/24/19 15:33,518
5/24/19 15:33,510
5/24/19 15:33,512
5/24/19 15:33,513
5/24/19 15:33,505
5/24/19 15:33,509
5/24/19 15:33,503
5/24/19 15:33,507
5/24/19 15:33,508
5/24/19 15:33,499
5/24/19 15:33,507
5/24/19 15:33,492
5/24/19 15:33,507
5/24/19 15:33,496
5/24/19 15:33,504
5/24/19 15:33,515
5/24/19 15:33,506
5/24/19 15:33,511
5/24/19 15:33,510
5/24/19 15:33,503
5/24/19 15:33,513
5/24/19 15:33,463
5/24/19 15:33,519
5/24/19 15:33,520
5/24/19 15:33,496
5/24/19 15:33,513
5/24/19 15:33,516
5/24/19 15:33,518
5/24/19 15:33,513
5/24/19 15:33,505
5/24/19 15:33,507
5/24/19 15:33,469
5/24/19 15:33,499
5/24/19 15:33,510
5/24/19 15:33,507
5/24/19 15:33,515
5/24/19 15:33,506
5/24/19 15:33,513
5/24/19 15:33,510
5/24/19 15:33,505
5/24/19 15:33,512
5/24/19 15:33,503
5/24/19 15:33,510
5/24/19 15:33,506
5/24/19 15:33,504
5/24/19 15:33,510
5/24/19 15:33,499
5/24/19 15:33,509
5/24/19 15:33,496
5/24/19 15:33,508
5/24/19 15:33,499
5/24/19 15:33,500
5/24/19 15:33,513
5/24/19 15:33,509
5/24/19 15:33,507
5/24/19 15:33,511
5/24/19 15:33,502
5/24/19 15:33,507
5/24/19 15:33,498
5/24/19 15:33,490
5/24/19 15:33,508
5/24/19 15:33,505
5/24/19 15:33,516
5/24/19 15:33,501
5/24/19 15:33,510
5/24/19 15:33,516
5/24/19 15:33,508
5/24/19 15:33,512
5/24/19 15:33,505
5/24/19 15:33,500
5/24/19 15:33,485
5/24/19 15:33,516
5/24/19 15:33,508
5/24/19 15:33,506
5/24/19 15:33,511
5/24/19 15:33,512
5/24/19 15:33,507
5/24/19 15:33,514
5/24/19 15:33,502
5/24/19 15:33,503
5/24/19 15:33,504
5/24/19 15:33,497
5/24/19 15:33,491
5/24/19 15:33,497
5/24/19 15:33,507
5/24/19 15:33,502
5/24/19 15:33,509
5/24/19 15:33,519
5/24/19 15:33,495
5/24/19 15:33,507
5/24/19 15:33,513
5/24/19 15:33,509
5/24/19 15:33,516
5/24/19 15:33,507
5/24/19 15:33,512
5/24/19 15:33,509
5/24/19 15:33,503
5/24/19 15:33,510
5/24/19 15:33,500
5/24/19 15:33,509
5/24/19 15:33,508
5/24/19 15:33,502
5/24/19 15:33,508
5/24/19 15:33,494
5/24/19 15:33,509
5/24/19 15:33,507
5/24/19 15:33,504
5/24/19 15:33,494
5/24/19 15:33,499
5/24/19 15:33,503
5/24/19 15:33,510
5/24/19 15:33,512
5/24/19 15:33,517
5/24/19 15:33,505
5/24/19 15:33,511
5/24/19 15:33,507
5/24/19 15:33,492
5/24/19 15:33,495
5/24/19 15:33,445
5/24/19 15:33,532
5/24/19 15:33,523
5/24/19 15:33,523
5/24/19 15:33,521
5/24/19 15:33,506
5/24/19 15:33,514
5/24/19 15:33,502
5/24/19 15:33,501
5/24/19 15:33,502
5/24/19 15:33,494
5/24/19 15:33,503
5/24/19 15:33,497
5/24/19 15:33,500
5/24/19 15:33,507
5/24/19 15:33,500
5/24/19 15:33,486
5/24/19 15:33,501
5/24/19 15:33,516
5/24/19 15:33,519
5/24/19 15:33,510
5/24/19 15:33,518
5/24/19 15:33,506
5/24/19 15:33,485
5/24/19 15:33,510
5/24/19 15:33,508
5/24/19 15:33,520
5/24/19 15:33,509
5/24/19 15:33,514
5/24/19 15:33,513
5/24/19 15:33,505
5/24/19 15:33,511
5/24/19 15:33,502
5/24/19 15:33,505
5/24/19 15:33,505
5/24/19 15:33,492
5/24/19 15:33,490
5/24/19 15:33,497
5/24/19 15:33,511
5/24/19 15:33,513
5/24/19 15:33,506
5/24/19 15:33,513
5/24/19 15:33,505
5/24/19 15:33,499
5/24/19 15:33,503
5/24/19 15:33,497
5/24/19 15:33,515
5/24/19 15:33,507
5/24/19 15:33,511
5/24/19 15:33,456
5/24/19 15:33,510
5/24/19 15:33,530
5/24/19 15:33,517
5/24/19 15:33,518
5/24/19 15:33,518
5/24/19 15:33,509
5/24/19 15:33,510
5/24/19 15:33,481
5/24/19 15:33,491
5/24/19 15:33,498
5/24/19 15:33,506
5/24/19 15:33,511
5/24/19 15:33,502
5/24/19 15:33,510
5/24/19 15:33,505
5/24/19 15:33,506
5/24/19 15:33,511
5/24/19 15:33,500
5/24/19 15:33,495
5/24/19 15:33,495
5/24/19 15:33,508
5/24/19 15:33,519
5/24/19 15:33,510
5/24/19 15:33,515
5/24/19 15:33,493
5/24/19 15:33,508
5/24/19 15:33,514
5/24/19 15:33,498
5/24/19 15:33,512
5/24/19 15:33,508
5/24/19 15:33,513
5/24/19 15:33,514
5/24/19 15:33,503
5/24/19 15:33,510
5/24/19 15:33,502
5/24/19 15:33,504
5/24/19 15:33,505
5/24/19 15:33,493
5/24/19 15:33,492
5/24/19 15:33,505
5/24/19 15:33,512
5/24/19 15:33,513
5/24/19 15:33,503
5/24/19 15:33,513
5/24/19 15:33,504
5/24/19 15:33,498
5/24/19 15:33,500
5/24/19 15:33,499
5/24/19 15:33,504
5/24/19 15:33,491
5/24/19 15:33,527
5/24/19 15:33,523
5/24/19 15:33,514
5/24/19 15:33,516
5/24/19 15:33,507
5/24/19 15:33,510
5/24/19 15:33,503
5/24/19 15:33,498
5/24/19 15:33,503
5/24/19 15:33,496
5/24/19 15:33,501
5/24/19 15:33,501
5/24/19 15:33,499
5/24/19 15:33,508
5/24/19 15:33,501
5/24/19 15:33,486
5/24/19 15:33,508
5/24/19 15:33,511
5/24/19 15:33,520
5/24/19 15:33,510
5/24/19 15:33,515
5/24/19 15:33,509
5/24/19 15:33,507
5/24/19 15:33,513
5/24/19 15:33,503
5/24/19 15:33,497
5/24/19 15:33,500
5/24/19 15:33,509
5/24/19 15:33,517
5/24/19 15:33,508
5/24/19 15:33,509
5/24/19 15:33,504
5/24/19 15:33,494
5/24/19 15:33,510
5/24/19 15:33,505
5/24/19 15:33,516
5/24/19 15:33,507
5/24/19 15:33,506
5/24/19 15:33,510
5/24/19 15:33,502
5/24/19 15:33,510
5/24/19 15:33,504
5/24/19 15:33,493
5/24/19 15:33,493
5/24/19 15:33,503
5/24/19 15:33,516
5/24/19 15:33,509
5/24/19 15:33,483
5/24/19 15:33,514
5/24/19 15:33,519
5/24/19 15:33,524
5/24/19 15:33,485
5/24/19 15:33,510
5/24/19 15:33,520
5/24/19 15:33,508
5/24/19 15:33,513
5/24/19 15:33,502
5/24/19 15:33,503
5/24/19 15:33,504
5/24/19 15:33,499
5/24/19 15:33,507
5/24/19 15:33,500
5/24/19 15:33,505
5/24/19 15:33,505
5/24/19 15:33,486
5/24/19 15:33,515
5/24/19 15:33,508
5/24/19 15:33,515
5/24/19 15:33,514
5/24/19 15:33,509
5/24/19 15:33,495
5/24/19 15:33,495
5/24/19 15:33,515
5/24/19 15:33,515
5/24/19 15:33,512
5/24/19 15:33,517
5/24/19 15:33,505
5/24/19 15:33,510
5/24/19 15:33,505
5/24/19 15:33,497
5/24/19 15:33,503
5/24/19 15:33,496
5/24/19 15:33,510
5/24/19 15:33,509
5/24/19 15:33,507
5/24/19 15:33,512
5/24/19 15:33,501
5/24/19 15:33,508
5/24/19 15:33,504
5/24/19 15:33,502
5/24/19 15:33,502
5/24/19 15:33,501
5/24/19 15:33,500
5/24/19 15:33,506
5/24/19 15:33,507
5/24/19 15:33,513
5/24/19 15:33,459
5/24/19 15:33,518
5/24/19 15:33,522
5/24/19 15:33,523
5/24/19 15:42,515
5/24/19 15:42,515
5/24/19 15:42,517
5/24/19 15:42,513
5/24/19 15:42,515
5/24/19 15:42,508
5/24/19 15:42,507
5/24/19 15:42,507
5/24/19 15:42,490
5/24/19 15:42,503
5/24/19 15:42,507
5/24/19 15:42,508
5/24/19 15:42,509
5/24/19 15:42,495
5/24/19 15:42,508
5/24/19 15:42,508
5/24/19 15:42,509
5/24/19 15:42,506
5/24/19 15:42,500
5/24/19 15:42,497
5/24/19 15:42,504
5/24/19 15:42,509
5/24/19 15:42,508
5/24/19 15:42,506
5/24/19 15:42,508
5/24/19 15:42,495
5/24/19 15:42,493
5/24/19 15:42,507
5/24/19 15:42,512
5/24/19 15:42,514
5/24/19 15:42,510
5/24/19 15:42,480
5/24/19 15:42,515
5/24/19 15:42,524
5/24/19 15:42,519
5/24/19 15:42,515
5/24/19 15:42,512
5/24/19 15:42,508
5/24/19 15:42,504
5/24/19 15:42,503
5/24/19 15:42,498
5/24/19 15:42,501
5/24/19 15:42,498
5/24/19 15:42,499
5/24/19 15:42,502
5/24/19 15:42,501
5/24/19 15:42,504
5/24/19 15:42,504
5/24/19 15:42,504
5/24/19 15:42,506
5/24/19 15:42,504
5/24/19 15:42,487
5/24/19 15:42,506
5/24/19 15:42,513
5/24/19 15:42,517
5/24/19 15:42,510
5/24/19 15:42,512
5/24/19 15:42,511
5/24/19 15:42,508
5/24/19 15:42,510
5/24/19 15:42,506
5/24/19 15:42,510
5/24/19 15:42,506
5/24/19 15:42,504
5/24/19 15:42,506
5/24/19 15:42,502
5/24/19 15:42,506
5/24/19 15:42,502
5/24/19 15:42,503
5/24/19 15:42,505
5/24/19 15:42,502
5/24/19 15:42,506
5/24/19 15:42,503
5/24/19 15:42,493
5/24/19 15:42,494
5/24/19 15:42,507
5/24/19 15:42,516
5/24/19 15:42,511
5/24/19 15:42,511
5/24/19 15:42,511
5/24/19 15:42,507
5/24/19 15:42,509
5/24/19 15:42,505
5/24/19 15:42,496
5/24/19 15:42,451
5/24/19 15:42,518
5/24/19 15:42,526
5/24/19 15:42,522
5/24/19 15:42,518
5/24/19 15:42,514
5/24/19 15:42,513
5/24/19 15:42,502
5/24/19 15:42,503
5/24/19 15:42,504
5/24/19 15:42,503
5/24/19 15:42,499
5/24/19 15:42,502
5/24/19 15:42,498
5/24/19 15:42,503
5/24/19 15:42,503
5/24/19 15:42,500
5/24/19 15:42,493
5/24/19 15:42,503
5/24/19 15:42,510
5/24/19 15:42,510
5/24/19 15:42,501
5/24/19 15:42,514
5/24/19 15:42,511
5/24/19 15:42,514
5/24/19 15:42,511
5/24/19 15:42,508
5/24/19 15:42,511
5/24/19 15:42,505
5/24/19 15:42,508
5/24/19 15:42,505
5/24/19 15:42,503
5/24/19 15:42,507
5/24/19 15:42,492
5/24/19 15:42,505
5/24/19 15:42,507
5/24/19 15:42,506
5/24/19 15:42,508
5/24/19 15:42,506
5/24/19 15:42,508
5/24/19 15:42,506
5/24/19 15:42,500
5/24/19 15:42,503
5/24/19 15:42,507
5/24/19 15:42,510
5/24/19 15:42,508
5/24/19 15:42,505
5/24/19 15:42,509
5/24/19 15:42,504
5/24/19 15:42,509
5/24/19 15:42,440
5/24/19 15:42,518
5/24/19 15:42,528
5/24/19 15:42,517
5/24/19 15:42,514
5/24/19 15:42,514
5/24/19 15:42,510
5/24/19 15:42,510
5/24/19 15:42,502
5/24/19 15:42,503
5/24/19 15:42,500
5/24/19 15:42,501
5/24/19 15:42,502
5/24/19 15:42,500
5/24/19 15:42,505
5/24/19 15:42,504
5/24/19 15:42,505
5/24/19 15:42,506
5/24/19 15:42,504
5/24/19 15:42,509
5/24/19 15:42,484
5/24/19 15:42,505
5/24/19 15:42,516
5/24/19 15:42,512
5/24/19 15:42,515
5/24/19 15:42,510
5/24/19 15:42,508
5/24/19 15:42,509
5/24/19 15:42,505
5/24/19 15:42,510
5/24/19 15:42,507
5/24/19 15:42,494
5/24/19 15:42,504
5/24/19 15:42,501
5/24/19 15:42,512
5/24/19 15:42,510
5/24/19 15:42,508
5/24/19 15:42,509
5/24/19 15:42,503
5/24/19 15:42,507
5/24/19 15:42,502
5/24/19 15:42,505
5/24/19 15:42,506
5/24/19 15:42,501
5/24/19 15:42,505
5/24/19 15:42,493
5/24/19 15:42,505
5/24/19 15:42,500
5/24/19 15:42,508
5/24/19 15:42,514
5/24/19 15:42,509
5/24/19 15:42,448
5/24/19 15:42,529
5/24/19 15:42,520
5/24/19 15:42,509
5/24/19 15:42,510
5/24/19 15:42,523
5/24/19 15:42,516
5/24/19 15:42,508
5/24/19 15:42,507
5/24/19 15:42,501
5/24/19 15:42,500
5/24/19 15:42,499
5/24/19 15:42,498
5/24/19 15:42,503
5/24/19 15:42,500
5/24/19 15:42,505
5/24/19 15:42,506
5/24/19 15:42,503
5/24/19 15:42,507
5/24/19 15:42,504
5/24/19 15:42,496
5/24/19 15:42,500
5/24/19 15:42,508
5/24/19 15:42,517
5/24/19 15:42,512
5/24/19 15:42,514
5/24/19 15:42,513
5/24/19 15:42,491
5/24/19 15:42,501
5/24/19 15:42,511
5/24/19 15:42,516
5/24/19 15:42,513
5/24/19 15:42,509
5/24/19 15:42,510
5/24/19 15:42,505
5/24/19 15:42,506
5/24/19 15:42,505
5/24/19 15:42,501
5/24/19 15:42,503
5/24/19 15:42,501
5/24/19 15:42,504
5/24/19 15:42,503
5/24/19 15:42,503
5/24/19 15:42,506
5/24/19 15:42,503
5/24/19 15:42,493
5/24/19 15:42,501
5/24/19 15:42,506
5/24/19 15:42,510
5/24/19 15:42,505
5/24/19 15:42,439
5/24/19 15:42,526
5/24/19 15:42,529
5/24/19 15:42,526
5/24/19 15:42,510
5/24/19 15:42,518
5/24/19 15:42,498
5/24/19 15:42,502
5/24/19 15:42,506
5/24/19 15:42,502
5/24/19 15:42,503
5/24/19 15:42,500
5/24/19 15:42,501
5/24/19 15:42,504
5/24/19 15:42,502
5/24/19 15:42,506
5/24/19 15:42,503
5/24/19 15:42,505
5/24/19 15:42,508
5/24/19 15:42,505
5/24/19 15:42,510
5/24/19 15:42,506
5/24/19 15:42,508
5/24/19 15:42,495
5/24/19 15:42,500
5/24/19 15:42,513
5/24/19 15:42,510
5/24/19 15:42,511
5/24/19 15:42,513
5/24/19 15:42,509
5/24/19 15:42,511
5/24/19 15:42,506
5/24/19 15:42,507
5/24/19 15:42,507
5/24/19 15:42,502
5/24/19 15:42,483
5/24/19 15:42,501
5/24/19 15:42,509
5/24/19 15:42,512
5/24/19 15:42,508
5/24/19 15:42,508
5/24/19 15:42,506
5/24/19 15:42,507
5/24/19 15:42,507
5/24/19 15:42,506
5/24/19 15:42,506
5/24/19 15:42,503
5/24/19 15:42,506
5/24/19 15:42,504
5/24/19 15:42,503
5/24/19 15:42,495
5/24/19 15:42,474
5/24/19 15:42,511
5/24/19 15:42,523
5/24/19 15:42,522
5/24/19 15:42,523
5/24/19 15:42,516
5/24/19 15:42,513
5/24/19 15:42,505
5/24/19 15:42,503
5/24/19 15:42,502
5/24/19 15:42,497
5/24/19 15:42,488
5/24/19 15:42,500
5/24/19 15:42,503
5/24/19 15:42,507
5/24/19 15:42,503
5/24/19 15:42,505
5/24/19 15:42,511
5/24/19 15:42,509
5/24/19 15:42,514
5/24/19 15:42,508
5/24/19 15:42,511
5/24/19 15:42,508
5/24/19 15:42,493
5/24/19 15:42,503
5/24/19 15:42,506
5/24/19 15:42,509
5/24/19 15:42,509
5/24/19 15:42,508
5/24/19 15:42,510
5/24/19 15:42,503
5/24/19 15:42,505
5/24/19 15:42,510
5/24/19 15:42,493
5/24/19 15:42,504
5/24/19 15:42,506
5/24/19 15:42,508
5/24/19 15:42,506
5/24/19 15:42,506
5/24/19 15:42,502
5/24/19 15:42,506
5/24/19 15:42,510
5/24/19 15:42,508
5/24/19 15:42,508
5/24/19 15:42,509
5/24/19 15:42,506
5/24/19 15:42,506
5/24/19 15:42,503
5/24/19 15:42,504
5/24/19 15:42,476
5/24/19 15:42,506
5/24/19 15:42,509
5/24/19 15:42,518
5/24/19 15:42,510
5/24/19 15:42,508
5/24/19 15:42,509
5/24/19 15:42,516
5/24/19 15:42,509
5/24/19 15:42,492
5/24/19 15:42,500
5/24/19 15:42,503
5/24/19 15:42,496
5/24/19 15:42,507
5/24/19 15:42,509
5/24/19 15:42,511
5/24/19 15:42,508
5/24/19 15:42,510
5/24/19 15:42,507
5/24/19 15:42,508
5/24/19 15:42,508
5/24/19 15:42,505
5/24/19 15:42,507
5/24/19 15:42,504
5/24/19 15:42,506
5/24/19 15:42,506
5/24/19 15:42,502
5/24/19 15:42,507
5/24/19 15:42,505
5/24/19 15:42,505
5/24/19 15:42,497
5/24/19 15:42,505
5/24/19 15:42,508
5/24/19 15:42,499
5/24/19 15:42,509
5/24/19 15:42,510
5/24/19 15:42,509
5/24/19 15:42,509
5/24/19 15:42,496
5/24/19 15:42,499
5/24/19 15:42,506
5/24/19 15:42,506
5/24/19 15:42,501
5/24/19 15:42,509
5/24/19 15:42,512
5/24/19 15:42,512
5/24/19 15:42,508
5/24/19 15:42,510
5/24/19 15:42,507
5/24/19 15:42,507
5/24/19 15:42,466
5/24/19 15:42,513
5/24/19 15:42,522
5/24/19 15:42,515
5/24/19 15:42,518
5/24/19 15:42,512
5/24/19 15:42,497
5/24/19 15:42,491
5/24/19 15:42,499
5/24/19 15:42,508
5/24/19 15:42,506
5/24/19 15:42,504
5/24/19 15:42,504
5/24/19 15:42,504
5/24/19 15:42,494
5/24/19 15:42,495
5/24/19 15:42,502
5/24/19 15:42,513
5/24/19 15:42,514
5/24/19 15:42,516
5/24/19 15:42,515
5/24/19 15:42,512
5/24/19 15:42,510
5/24/19 15:42,507
5/24/19 15:42,508
5/24/19 15:42,507
5/24/19 15:42,506
5/24/19 15:42,506
5/24/19 15:42,504
5/24/19 15:42,506
5/24/19 15:42,506
5/24/19 15:42,505
5/24/19 15:42,505
5/24/19 15:42,502
5/24/19 15:42,505
5/24/19 15:42,502
5/24/19 15:42,504
5/24/19 15:42,504
5/24/19 15:42,501
5/24/19 15:42,505
5/24/19 15:42,503
5/24/19 15:42,498
5/24/19 15:42,491
5/24/19 15:42,507
5/24/19 15:42,514
5/24/19 15:42,512
5/24/19 15:42,512
5/24/19 15:42,510
5/24/19 15:42,506
5/24/19 15:42,508
5/24/19 15:42,485
5/24/19 15:42,504
5/24/19 15:42,524
5/24/19 15:42,518
5/24/19 15:42,512
5/24/19 15:42,512
5/24/19 15:42,511
5/24/19 15:42,498
5/24/19 15:42,503
5/24/19 15:42,504
5/24/19 15:42,494
5/24/19 15:42,504
5/24/19 15:42,506
5/24/19 15:42,507
5/24/19 15:42,507
5/24/19 15:42,505
5/24/19 15:42,505
5/24/19 15:42,505
5/24/19 15:42,507
5/24/19 15:42,508
5/24/19 15:42,493
5/24/19 15:42,506
5/24/19 15:42,510
5/24/19 15:42,509
5/24/19 15:42,510
5/24/19 15:42,509
5/24/19 15:42,509
5/24/19 15:42,507
5/24/19 15:42,506
5/24/19 15:42,508
5/24/19 15:42,505
5/24/19 15:42,508
5/24/19 15:42,499
5/24/19 15:42,505
5/24/19 15:42,509
5/24/19 15:42,492
5/24/19 15:42,506
5/24/19 15:42,508
5/24/19 15:42,507
5/24/19 15:42,508
5/24/19 15:42,506
5/24/19 15:42,507
5/24/19 15:42,505
5/24/19 15:42,504
5/24/19 15:42,506
5/24/19 15:42,491
5/24/19 15:42,504
5/24/19 15:42,500
5/24/19 15:42,511
5/24/19 15:42,514
5/24/19 15:42,510
5/24/19 15:42,464
5/24/19 15:42,520
5/24/19 15:42,524
5/24/19 15:42,518
5/24/19 15:42,511
5/24/19 15:42,499
5/24/19 15:42,506
5/24/19 15:42,508
5/24/19 15:42,507
5/24/19 15:42,494
5/24/19 15:42,505
5/24/19 15:42,506
5/24/19 15:42,507
5/24/19 15:42,505
5/24/19 15:42,503
5/24/19 15:42,496
5/24/19 15:42,504
5/24/19 15:42,508
5/24/19 15:42,502
5/24/19 15:42,510
5/24/19 15:42,516
5/24/19 15:42,512
5/24/19 15:42,512
5/24/19 15:42,509
5/24/19 15:42,507
5/24/19 15:42,507
5/24/19 15:42,504
5/24/19 15:42,507
5/24/19 15:42,505
5/24/19 15:42,505
5/24/19 15:42,508
5/24/19 15:42,493
5/24/19 15:42,500
5/24/19 15:42,499
5/24/19 15:42,505
5/24/19 15:42,511
5/24/19 15:42,510
5/24/19 15:42,509
5/24/19 15:42,507
5/24/19 15:42,504
5/24/19 15:42,488
5/24/19 15:42,498
5/24/19 15:42,512
5/24/19 15:42,514
5/24/19 15:42,511
5/24/19 15:42,514
5/24/19 15:42,508
5/24/19 15:42,507
5/24/19 15:42,506
5/24/19 15:42,505
5/24/19 15:42,461
5/24/19 15:42,513
5/24/19 15:42,523
5/24/19 15:42,524
5/24/19 15:42,501
5/24/19 15:42,511
5/24/19 15:42,510
5/24/19 15:42,509
5/24/19 15:42,504
5/24/19 15:42,493
5/24/19 15:42,505
5/24/19 15:42,504
5/24/19 15:42,507
5/24/19 15:42,504
5/24/19 15:42,505
5/24/19 15:42,490
5/24/19 15:42,492
5/24/19 15:42,513
5/24/19 15:42,514
5/24/19 15:42,515
5/24/19 15:42,514
5/24/19 15:42,510
5/24/19 15:42,493
5/24/19 15:42,504
5/24/19 15:42,507
5/24/19 15:42,510
5/24/19 15:42,509
5/24/19 15:42,512
5/24/19 15:42,509
5/24/19 15:42,508
5/24/19 15:42,506
5/24/19 15:42,504
5/24/19 15:42,508
5/24/19 15:42,505
5/24/19 15:42,505
5/24/19 15:42,504
5/24/19 15:42,488
5/24/19 15:42,492
5/24/19 15:42,508
5/24/19 15:42,510
5/24/19 15:42,512
5/24/19 15:42,508
5/24/19 15:42,510
5/24/19 15:42,507
5/24/19 15:42,507
5/24/19 15:42,507
5/24/19 15:42,503
5/24/19 15:42,503
5/24/19 15:42,490
5/24/19 15:42,504
5/24/19 15:42,446
5/24/19 15:42,524
5/24/19 15:42,529
5/24/19 15:42,517
5/24/19 15:42,513
5/24/19 15:42,515
5/24/19 15:42,511
5/24/19 15:42,510
5/24/19 15:42,503
5/24/19 15:42,499
5/24/19 15:42,502
5/24/19 15:42,497
5/24/19 15:42,502
5/24/19 15:42,492
5/24/19 15:51,515
5/24/19 15:51,517
5/24/19 15:51,507
5/24/19 15:51,507
5/24/19 15:51,479
5/24/19 15:51,497
5/24/19 15:51,501
5/24/19 15:51,498
5/24/19 15:51,501
5/24/19 15:51,507
5/24/19 15:51,490
5/24/19 15:51,501
5/24/19 15:51,495
5/24/19 15:51,518
5/24/19 15:51,492
5/24/19 15:51,515
5/24/19 15:51,506
5/24/19 15:51,521
5/24/19 15:51,526
5/24/19 15:51,518
5/24/19 15:51,511
5/24/19 15:51,494
5/24/19 15:51,508
5/24/19 15:51,514
5/24/19 15:51,503
5/24/19 15:51,505
5/24/19 15:51,513
5/24/19 15:51,490
5/24/19 15:51,508
5/24/19 15:51,494
5/24/19 15:51,515
5/24/19 15:51,515
5/24/19 15:51,515
5/24/19 15:51,514
5/24/19 15:51,506
5/24/19 15:51,507
5/24/19 15:51,483
5/24/19 15:51,486
5/24/19 15:51,508
5/24/19 15:51,511
5/24/19 15:51,517
5/24/19 15:51,503
5/24/19 15:51,482
5/24/19 15:51,511
5/24/19 15:51,514
5/24/19 15:51,519
5/24/19 15:51,492
5/24/19 15:51,494
5/24/19 15:51,466
5/24/19 15:51,530
5/24/19 15:51,533
5/24/19 15:51,497
5/24/19 15:51,511
5/24/19 15:51,516
5/24/19 15:51,513
5/24/19 15:51,508
5/24/19 15:51,500
5/24/19 15:51,511
5/24/19 15:51,509
5/24/19 15:51,484
5/24/19 15:51,503
5/24/19 15:51,503
5/24/19 15:51,496
5/24/19 15:51,484
5/24/19 15:51,505
5/24/19 15:51,504
5/24/19 15:51,514
5/24/19 15:51,524
5/24/19 15:51,521
5/24/19 15:51,491
5/24/19 15:51,507
5/24/19 15:51,507
5/24/19 15:51,515
5/24/19 15:51,513
5/24/19 15:51,509
5/24/19 15:51,497
5/24/19 15:51,504
5/24/19 15:51,515
5/24/19 15:51,513
5/24/19 15:51,506
5/24/19 15:51,510
5/24/19 15:51,502
5/24/19 15:51,507
5/24/19 15:51,492
5/24/19 15:51,486
5/24/19 15:51,498
5/24/19 15:51,498
5/24/19 15:51,516
5/24/19 15:51,512
5/24/19 15:51,511
5/24/19 15:51,510
5/24/19 15:51,482
5/24/19 15:51,503
5/24/19 15:51,507
5/24/19 15:51,497
5/24/19 15:51,514
5/24/19 15:51,509
5/24/19 15:51,496
5/24/19 15:51,506
5/24/19 15:51,513
5/24/19 15:51,464
5/24/19 15:51,519
5/24/19 15:51,509
5/24/19 15:51,518
5/24/19 15:51,523
5/24/19 15:51,524
5/24/19 15:51,501
5/24/19 15:51,517
5/24/19 15:51,512
5/24/19 15:51,487
5/24/19 15:51,504
5/24/19 15:51,505
5/24/19 15:51,511
5/24/19 15:51,506
5/24/19 15:51,508
5/24/19 15:51,506
5/24/19 15:51,469
5/24/19 15:51,503
5/24/19 15:51,512
5/24/19 15:51,518
5/24/19 15:51,479
5/24/19 15:51,502
5/24/19 15:51,521
5/24/19 15:51,492
5/24/19 15:51,495
5/24/19 15:51,521
5/24/19 15:51,521
5/24/19 15:51,524
5/24/19 15:51,516
5/24/19 15:51,499
5/24/19 15:51,495
5/24/19 15:51,510
5/24/19 15:51,521
5/24/19 15:51,513
5/24/19 15:51,514
5/24/19 15:51,511
5/24/19 15:51,504
5/24/19 15:51,508
5/24/19 15:51,501
5/24/19 15:51,503
5/24/19 15:51,473
5/24/19 15:51,487
5/24/19 15:51,509
5/24/19 15:51,510
5/24/19 15:51,505
5/24/19 15:51,493
5/24/19 15:51,500
5/24/19 15:51,517
5/24/19 15:51,511
5/24/19 15:51,513
5/24/19 15:51,482
5/24/19 15:51,504
5/24/19 15:51,516
5/24/19 15:51,461
5/24/19 15:51,532
5/24/19 15:51,525
5/24/19 15:51,518
5/24/19 15:51,511
5/24/19 15:51,489
5/24/19 15:51,514
5/24/19 15:51,513
5/24/19 15:51,508
5/24/19 15:51,510
5/24/19 15:51,503
5/24/19 15:51,506
5/24/19 15:51,503
5/24/19 15:51,501
5/24/19 15:51,505
5/24/19 15:51,499
5/24/19 15:51,472
5/24/19 15:51,494
5/24/19 15:51,510
5/24/19 15:51,518
5/24/19 15:51,512
5/24/19 15:51,517
5/24/19 15:51,495
5/24/19 15:51,488
5/24/19 15:51,514
5/24/19 15:51,515
5/24/19 15:51,494
5/24/19 15:51,505
5/24/19 15:51,514
5/24/19 15:51,505
5/24/19 15:51,514
5/24/19 15:51,520
5/24/19 15:51,490
5/24/19 15:51,507
5/24/19 15:51,514
5/24/19 15:51,499
5/24/19 15:51,512
5/24/19 15:51,513
5/24/19 15:51,513
5/24/19 15:51,491
5/24/19 15:51,498
5/24/19 15:51,512
5/24/19 15:51,507
5/24/19 15:51,510
5/24/19 15:51,509
5/24/19 15:51,505
5/24/19 15:51,511
5/24/19 15:51,503
5/24/19 15:51,475
5/24/19 15:51,498
5/24/19 15:51,509
5/24/19 15:51,517
5/24/19 15:51,497
5/24/19 15:51,502
5/24/19 15:51,526
5/24/19 15:51,506
5/24/19 15:51,524
5/24/19 15:51,518
5/24/19 15:51,518
5/24/19 15:51,509
5/24/19 15:51,497
5/24/19 15:51,490
5/24/19 15:51,496
5/24/19 15:51,503
5/24/19 15:51,503
5/24/19 15:51,489
5/24/19 15:51,503
5/24/19 15:51,492
5/24/19 15:51,513
5/24/19 15:51,516
5/24/19 15:51,513
5/24/19 15:51,515
5/24/19 15:51,509
5/24/19 15:51,511
5/24/19 15:51,509
5/24/19 15:51,507
5/24/19 15:51,509
5/24/19 15:51,473
5/24/19 15:51,506
5/24/19 15:51,511
5/24/19 15:51,514
5/24/19 15:51,517
5/24/19 15:51,509
5/24/19 15:51,513
5/24/19 15:51,506
5/24/19 15:51,506
5/24/19 15:51,509
5/24/19 15:51,503
5/24/19 15:51,505
5/24/19 15:51,502
5/24/19 15:51,503
5/24/19 15:51,504
5/24/19 15:51,500
5/24/19 15:51,506
5/24/19 15:51,500
5/24/19 15:51,503
5/24/19 15:51,506
5/24/19 15:51,501
5/24/19 15:51,506
5/24/19 15:51,483
5/24/19 15:51,487
5/24/19 15:51,513
5/24/19 15:51,513
5/24/19 15:51,519
5/24/19 15:51,513
5/24/19 15:51,471
5/24/19 15:51,524
5/24/19 15:51,518
5/24/19 15:51,521
5/24/19 15:51,487
5/24/19 15:51,506
5/24/19 15:51,520
5/24/19 15:51,514
5/24/19 15:51,516
5/24/19 15:51,507
5/24/19 15:51,505
5/24/19 15:51,505
5/24/19 15:51,493
5/24/19 15:51,487
5/24/19 15:51,506
5/24/19 15:51,514
5/24/19 15:51,515
5/24/19 15:51,509
5/24/19 15:51,504
5/24/19 15:51,494
5/24/19 15:51,503
5/24/19 15:51,516
5/24/19 15:51,514
5/24/19 15:51,518
5/24/19 15:51,510
5/24/19 15:51,510
5/24/19 15:51,499
5/24/19 15:51,487
5/24/19 15:51,511
5/24/19 15:51,510
5/24/19 15:51,515
5/24/19 15:51,509
5/24/19 15:51,509
5/24/19 15:51,511
5/24/19 15:51,502
5/24/19 15:51,506
5/24/19 15:51,489
5/24/19 15:51,482
5/24/19 15:51,505
5/24/19 15:51,507
5/24/19 15:51,513
5/24/19 15:51,508
5/24/19 15:51,509
5/24/19 15:51,509
5/24/19 15:51,502
5/24/19 15:51,508
5/24/19 15:51,505
5/24/19 15:51,500
5/24/19 15:51,483
5/24/19 15:51,502
5/24/19 15:51,516
5/24/19 15:51,514
5/24/19 15:51,511
5/24/19 15:51,464
5/24/19 15:51,521
5/24/19 15:51,525
5/24/19 15:51,519
5/24/19 15:51,515
5/24/19 15:51,494
5/24/19 15:51,499
5/24/19 15:51,515
5/24/19 15:51,509
5/24/19 15:51,509
5/24/19 15:51,511
5/24/19 15:51,502
5/24/19 15:51,508
5/24/19 15:51,489
5/24/19 15:51,495
5/24/19 15:51,500
5/24/19 15:51,503
5/24/19 15:51,519
5/24/19 15:51,513
5/24/19 15:51,513
5/24/19 15:51,512
5/24/19 15:51,506
5/24/19 15:51,511
5/24/19 15:51,504
5/24/19 15:51,506
5/24/19 15:51,506
5/24/19 15:51,502
5/24/19 15:51,500
5/24/19 15:51,482
5/24/19 15:51,504
5/24/19 15:51,515
5/24/19 15:51,513
5/24/19 15:51,518
5/24/19 15:51,509
5/24/19 15:51,510
5/24/19 15:51,507
5/24/19 15:51,504
5/24/19 15:51,508
5/24/19 15:51,480
5/24/19 15:51,487
5/24/19 15:51,508
5/24/19 15:51,512
5/24/19 15:51,515
5/24/19 15:51,494
5/24/19 15:51,492
5/24/19 15:51,509
5/24/19 15:51,517
5/24/19 15:51,520
5/24/19 15:51,511
5/24/19 15:51,511
5/24/19 15:51,489
5/24/19 15:51,502
5/24/19 15:51,510
5/24/19 15:51,462
5/24/19 15:51,530
5/24/19 15:51,511
5/24/19 15:51,509
5/24/19 15:51,510
5/24/19 15:51,513
5/24/19 15:51,516
5/24/19 15:51,512
5/24/19 15:51,506
5/24/19 15:51,507
5/24/19 15:51,500
5/24/19 15:51,504
5/24/19 15:51,501
5/24/19 15:51,500
5/24/19 15:51,477
5/24/19 15:51,489
5/24/19 15:51,511
5/24/19 15:51,511
5/24/19 15:51,513
5/24/19 15:51,515
5/24/19 15:51,509
5/24/19 15:51,515
5/24/19 15:51,495
5/24/19 15:51,502
5/24/19 15:51,499
5/24/19 15:51,508
5/24/19 15:51,518
5/24/19 15:51,512
5/24/19 15:51,510
5/24/19 15:51,511
5/24/19 15:51,506
5/24/19 15:51,510
5/24/19 15:51,503
5/24/19 15:51,505
5/24/19 15:51,505
5/24/19 15:51,499
5/24/19 15:51,478
5/24/19 15:51,492
5/24/19 15:51,511
5/24/19 15:51,513
5/24/19 15:51,509
5/24/19 15:51,514
5/24/19 15:51,506
5/24/19 15:51,510
5/24/19 15:51,508
5/24/19 15:51,503
5/24/19 15:51,509
5/24/19 15:51,483
5/24/19 15:51,489
5/24/19 15:51,510
5/24/19 15:51,514
5/24/19 15:51,519
5/24/19 15:51,508
5/24/19 15:51,459
5/24/19 15:51,509
5/24/19 15:51,526
5/24/19 15:51,534
5/24/19 15:51,514
5/24/19 15:51,520
5/24/19 15:51,515
5/24/19 15:51,507
5/24/19 15:51,505
5/24/19 15:51,496
5/24/19 15:51,500
5/24/19 15:51,500
5/24/19 15:51,499
5/24/19 15:51,475
5/24/19 15:51,492
5/24/19 15:51,514
5/24/19 15:51,513
5/24/19 15:51,513
5/24/19 15:51,515
5/24/19 15:51,508
5/24/19 15:51,492
5/24/19 15:51,497
5/24/19 15:51,505
5/24/19 15:51,519
5/24/19 15:51,514
5/24/19 15:51,516
5/24/19 15:51,484
5/24/19 15:51,506
5/24/19 15:51,521
5/24/19 15:51,515
5/24/19 15:51,516
5/24/19 15:51,494
5/24/19 15:51,507
5/24/19 15:51,512
5/24/19 15:51,508
5/24/19 15:51,513
5/24/19 15:51,506
5/24/19 15:51,506
5/24/19 15:51,506
5/24/19 15:51,480
5/24/19 15:51,497
5/24/19 15:51,509
5/24/19 15:51,513
5/24/19 15:51,516
5/24/19 15:51,509
5/24/19 15:51,511
5/24/19 15:51,506
5/24/19 15:51,506
5/24/19 15:51,508
5/24/19 15:51,502
5/24/19 15:51,506
5/24/19 15:51,503
5/24/19 15:51,502
5/24/19 15:51,442
5/24/19 15:51,491
5/24/19 15:51,523
5/24/19 15:51,524
5/24/19 15:51,525
5/24/19 15:51,519
5/24/19 15:51,513
5/24/19 15:51,513
5/24/19 15:51,482
5/24/19 15:51,485
5/24/19 15:51,507
5/24/19 15:51,512
5/24/19 15:51,514
5/24/19 15:51,507
5/24/19 15:51,509
5/24/19 15:51,508
5/24/19 15:51,504
5/24/19 15:51,509
5/24/19 15:51,483
5/24/19 15:51,499
5/24/19 15:51,496
5/24/19 15:51,508
5/24/19 15:51,520
5/24/19 15:51,513
5/24/19 15:51,515
5/24/19 15:51,511
5/24/19 15:51,476
5/24/19 15:51,507
5/24/19 15:51,512
5/24/19 15:51,520
5/24/19 15:51,516
5/24/19 15:51,510
5/24/19 15:51,490
5/24/19 15:51,486
5/24/19 15:51,514
5/24/19 15:51,515
5/24/19 15:51,514
5/24/19 15:51,514
5/24/19 15:51,469
5/24/19 15:51,503
5/24/19 15:51,515
5/24/19 15:51,516
5/24/19 15:51,516
5/24/19 15:51,507
5/24/19 15:51,512
5/24/19 15:51,505
5/24/19 15:51,506
5/24/19 15:51,493
5/24/19 15:51,479
5/24/19 15:51,504
5/24/19 15:51,511
5/24/19 15:51,512
5/24/19 15:51,503
5/24/19 15:51,492
5/24/19 15:51,528
5/24/19 15:51,515
5/24/19 15:51,482
5/24/19 15:51,514
5/24/19 15:51,516
5/24/19 15:51,519
5/24/19 15:51,510
5/24/19 15:51,506
5/24/19 15:51,506
5/24/19 15:51,498
5/24/19 15:51,492
5/24/19 15:51,481
5/24/19 15:51,508
5/24/19 15:51,513
5/24/19 15:51,512
5/24/19 15:51,517
5/24/19 15:51,508
5/24/19 15:51,511
5/24/19 15:51,488
5/24/19 15:51,487
5/24/19 15:51,515
5/24/19 15:51,514
5/24/19 15:51,517
5/24/19 15:51,516
5/24/19 15:51,512
5/24/19 15:51,512
5/24/19 15:51,478
5/24/19 15:51,502
5/24/19 15:51,516
5/24/19 15:51,512
5/24/19 15:51,518
5/24/19 15:51,509
5/24/19 15:51,509
5/24/19 15:51,475
5/24/19 15:51,503
5/24/19 15:51,517
5/24/19 15:51,509
5/24/19 15:51,505
5/24/19 15:51,494
5/24/19 15:51,494
5/24/19 15:51,513
5/24/19 15:51,514
5/24/19 15:51,519
5/24/19 15:51,513
5/24/19 15:51,510
5/24/19 15:51,511
5/24/19 15:51,503
5/24/19 15:51,506
5/24/19 15:51,494
5/24/19 15:51,484
5/24/19 15:51,503
5/24/19 15:51,488
5/24/19 15:51,533
5/24/19 15:51,524
5/24/19 15:51,520
5/24/19 15:51,519
5/24/19 15:51,509
5/24/19 15:51,511
5/24/19 15:51,491
5/24/19 15:51,487
5/24/19 15:51,506
5/24/19 15:51,505
5/24/19 15:51,508
5/24/19 15:51,506
5/24/19 15:51,504
5/24/19 15:51,497
5/24/19 15:51,476
5/24/19 15:51,511
5/24/19 15:51,516
5/24/19 15:51,516
5/24/19 15:51,517
5/24/19 15:51,510
5/24/19 15:51,515
5/24/19 15:51,508
5/24/19 15:51,493
5/24/19 15:51,488
5/24/19 16:00,510
5/24/19 16:00,507
5/24/19 16:00,491
5/24/19 16:00,499
5/24/19 16:00,510
5/24/19 16:00,492
5/24/19 16:00,510
5/24/19 16:00,515
5/24/19 16:00,509
5/24/19 16:00,514
5/24/19 16:00,507
5/24/19 16:00,507
5/24/19 16:00,507
5/24/19 16:00,501
5/24/19 16:00,507
5/24/19 16:00,499
5/24/19 16:00,505
5/24/19 16:00,506
5/24/19 16:00,489
5/24/19 16:00,493
5/24/19 16:00,498
5/24/19 16:00,514
5/24/19 16:00,524
5/24/19 16:00,519
5/24/19 16:00,520
5/24/19 16:00,507
5/24/19 16:00,510
5/24/19 16:00,484
5/24/19 16:00,503
5/24/19 16:00,513
5/24/19 16:00,505
5/24/19 16:00,512
5/24/19 16:00,508
5/24/19 16:00,503
5/24/19 16:00,508
5/24/19 16:00,502
5/24/19 16:00,507
5/24/19 16:00,504
5/24/19 16:00,483
5/24/19 16:00,498
5/24/19 16:00,507
5/24/19 16:00,516
5/24/19 16:00,515
5/24/19 16:00,509
5/24/19 16:00,514
5/24/19 16:00,505
5/24/19 16:00,511
5/24/19 16:00,503
5/24/19 16:00,489
5/24/19 16:00,500
5/24/19 16:00,508
5/24/19 16:00,520
5/24/19 16:00,513
5/24/19 16:00,511
5/24/19 16:00,490
5/24/19 16:00,494
5/24/19 16:00,515
5/24/19 16:00,513
5/24/19 16:00,513
5/24/19 16:00,514
5/24/19 16:00,505
5/24/19 16:00,508
5/24/19 16:00,485
5/24/19 16:00,493
5/24/19 16:00,514
5/24/19 16:00,510
5/24/19 16:00,517
5/24/19 16:00,509
5/24/19 16:00,509
5/24/19 16:00,509
5/24/19 16:00,504
5/24/19 16:00,496
5/24/19 16:00,489
5/24/19 16:00,508
5/24/19 16:00,515
5/24/19 16:00,508
5/24/19 16:00,463
5/24/19 16:00,523
5/24/19 16:00,524
5/24/19 16:00,521
5/24/19 16:00,503
5/24/19 16:00,511
5/24/19 16:00,489
5/24/19 16:00,497
5/24/19 16:00,510
5/24/19 16:00,508
5/24/19 16:00,512
5/24/19 16:00,504
5/24/19 16:00,505
5/24/19 16:00,476
5/24/19 16:00,492
5/24/19 16:00,514
5/24/19 16:00,510
5/24/19 16:00,514
5/24/19 16:00,513
5/24/19 16:00,507
5/24/19 16:00,514
5/24/19 16:00,504
5/24/19 16:00,508
5/24/19 16:00,507
5/24/19 16:00,503
5/24/19 16:00,507
5/24/19 16:00,484
5/24/19 16:00,502
5/24/19 16:00,504
5/24/19 16:00,513
5/24/19 16:00,519
5/24/19 16:00,510
5/24/19 16:00,514
5/24/19 16:00,510
5/24/19 16:00,491
5/24/19 16:00,508
5/24/19 16:00,495
5/24/19 16:00,513
5/24/19 16:00,514
5/24/19 16:00,511
5/24/19 16:00,514
5/24/19 16:00,505
5/24/19 16:00,506
5/24/19 16:00,489
5/24/19 16:00,502
5/24/19 16:00,500
5/24/19 16:00,504
5/24/19 16:00,518
5/24/19 16:00,511
5/24/19 16:00,508
5/24/19 16:00,513
5/24/19 16:00,502
5/24/19 16:00,508
5/24/19 16:00,503
5/24/19 16:00,501
5/24/19 16:00,485
5/24/19 16:00,502
5/24/19 16:00,516
5/24/19 16:00,508
5/24/19 16:00,480
5/24/19 16:00,530
5/24/19 16:00,520
5/24/19 16:00,522
5/24/19 16:00,510
5/24/19 16:00,512
5/24/19 16:00,509
5/24/19 16:00,475
5/24/19 16:00,504
5/24/19 16:00,507
5/24/19 16:00,508
5/24/19 16:00,509
5/24/19 16:00,502
5/24/19 16:00,508
5/24/19 16:00,483
5/24/19 16:00,495
5/24/19 16:00,513
5/24/19 16:00,510
5/24/19 16:00,518
5/24/19 16:00,509
5/24/19 16:00,511
5/24/19 16:00,510
5/24/19 16:00,504
5/24/19 16:00,510
5/24/19 16:00,501
5/24/19 16:00,485
5/24/19 16:00,511
5/24/19 16:00,510
5/24/19 16:00,519
5/24/19 16:00,510
5/24/19 16:00,513
5/24/19 16:00,499
5/24/19 16:00,482
5/24/19 16:00,513
5/24/19 16:00,513
5/24/19 16:00,515
5/24/19 16:00,515
5/24/19 16:00,507
5/24/19 16:00,511
5/24/19 16:00,482
5/24/19 16:00,495
5/24/19 16:00,510
5/24/19 16:00,510
5/24/19 16:00,516
5/24/19 16:00,507
5/24/19 16:00,509
5/24/19 16:00,508
5/24/19 16:00,503
5/24/19 16:00,508
5/24/19 16:00,501
5/24/19 16:00,504
5/24/19 16:00,506
5/24/19 16:00,502
5/24/19 16:00,507
5/24/19 16:00,475
5/24/19 16:00,500
5/24/19 16:00,512
5/24/19 16:00,511
5/24/19 16:00,461
5/24/19 16:00,525
5/24/19 16:00,527
5/24/19 16:00,518
5/24/19 16:00,490
5/24/19 16:00,516
5/24/19 16:00,514
5/24/19 16:00,517
5/24/19 16:00,510
5/24/19 16:00,506
5/24/19 16:00,509
5/24/19 16:00,469
5/24/19 16:00,501
5/24/19 16:00,509
5/24/19 16:00,510
5/24/19 16:00,514
5/24/19 16:00,505
5/24/19 16:00,511
5/24/19 16:00,507
5/24/19 16:00,506
5/24/19 16:00,509
5/24/19 16:00,501
5/24/19 16:00,484
5/24/19 16:00,498
5/24/19 16:00,510
5/24/19 16:00,517
5/24/19 16:00,509
5/24/19 16:00,496
5/24/19 16:00,496
5/24/19 16:00,513
5/24/19 16:00,520
5/24/19 16:00,513
5/24/19 16:00,517
5/24/19 16:00,509
5/24/19 16:00,509
5/24/19 16:00,510
5/24/19 16:00,475
5/24/19 16:00,510
5/24/19 16:00,510
5/24/19 16:00,512
5/24/19 16:00,513
5/24/19 16:00,505
5/24/19 16:00,485
5/24/19 16:00,495
5/24/19 16:00,510
5/24/19 16:00,517
5/24/19 16:00,508
5/24/19 16:00,513
5/24/19 16:00,506
5/24/19 16:00,507
5/24/19 16:00,509
5/24/19 16:00,502
5/24/19 16:00,510
5/24/19 16:00,502
5/24/19 16:00,506
5/24/19 16:00,506
5/24/19 16:00,499
5/24/19 16:00,509
5/24/19 16:00,443
5/24/19 16:00,520
5/24/19 16:00,499
5/24/19 16:00,496
5/24/19 16:00,523
5/24/19 16:00,517
5/24/19 16:00,519
5/24/19 16:00,514
5/24/19 16:00,507
5/24/19 16:00,506
5/24/19 16:00,487
5/24/19 16:00,495
5/24/19 16:00,503
5/24/19 16:00,510
5/24/19 16:00,515
5/24/19 16:00,505
5/24/19 16:00,510
5/24/19 16:00,507
5/24/19 16:00,504
5/24/19 16:00,510
5/24/19 16:00,502
5/24/19 16:00,479
5/24/19 16:00,499
5/24/19 16:00,511
5/24/19 16:00,519
5/24/19 16:00,510
5/24/19 16:00,514
5/24/19 16:00,511
5/24/19 16:00,495
5/24/19 16:00,511
5/24/19 16:00,490
5/24/19 16:00,506
5/24/19 16:00,510
5/24/19 16:00,508
5/24/19 16:00,513
5/24/19 16:00,506
5/24/19 16:00,501
5/24/19 16:00,493
5/24/19 16:00,501
5/24/19 16:00,515
5/24/19 16:00,508
5/24/19 16:00,512
5/24/19 16:00,509
5/24/19 16:00,505
5/24/19 16:00,509
5/24/19 16:00,501
5/24/19 16:00,506
5/24/19 16:00,503
5/24/19 16:00,503
5/24/19 16:00,477
5/24/19 16:00,495
5/24/19 16:00,515
5/24/19 16:00,511
5/24/19 16:00,513
5/24/19 16:00,515
5/24/19 16:00,505
5/24/19 16:00,500
5/24/19 16:00,486
5/24/19 16:00,479
5/24/19 16:00,533
5/24/19 16:00,524
5/24/19 16:00,527
5/24/19 16:00,514
5/24/19 16:00,509
5/24/19 16:00,497
5/24/19 16:00,502
5/24/19 16:00,500
5/24/19 16:00,507
5/24/19 16:00,512
5/24/19 16:00,501
5/24/19 16:00,491
5/24/19 16:00,508
5/24/19 16:00,505
5/24/19 16:00,506
5/24/19 16:00,500
5/24/19 16:00,508
5/24/19 16:00,514
5/24/19 16:00,508
5/24/19 16:00,511
5/24/19 16:00,509
5/24/19 16:00,503
5/24/19 16:00,510
5/24/19 16:00,503
5/24/19 16:00,503
5/24/19 16:00,494
5/24/19 16:00,501
5/24/19 16:00,500
5/24/19 16:00,507
5/24/19 16:00,517
5/24/19 16:00,514
5/24/19 16:00,509
5/24/19 16:00,512
5/24/19 16:00,504
5/24/19 16:00,509
5/24/19 16:00,506
5/24/19 16:00,488
5/24/19 16:00,499
5/24/19 16:00,500
5/24/19 16:00,498
5/24/19 16:00,507
5/24/19 16:00,509
5/24/19 16:00,516
5/24/19 16:00,506
5/24/19 16:00,510
5/24/19 16:00,509
5/24/19 16:00,503
5/24/19 16:00,509
5/24/19 16:00,501
5/24/19 16:00,500
5/24/19 16:00,489
5/24/19 16:00,505
5/24/19 16:00,518
5/24/19 16:00,510
5/24/19 16:00,514
5/24/19 16:00,511
5/24/19 16:00,489
5/24/19 16:00,509
5/24/19 16:00,516
5/24/19 16:00,512
5/24/19 16:00,503
5/24/19 16:00,503
5/24/19 16:00,516
5/24/19 16:00,513
5/24/19 16:00,498
5/24/19 16:00,500
5/24/19 16:00,505
5/24/19 16:00,512
5/24/19 16:00,493
5/24/19 16:00,509
5/24/19 16:00,509
5/24/19 16:00,502
5/24/19 16:00,499
5/24/19 16:00,505
5/24/19 16:00,513
5/24/19 16:00,510
5/24/19 16:00,510
5/24/19 16:00,512
5/24/19 16:00,504
5/24/19 16:00,511
5/24/19 16:00,506
5/24/19 16:00,507
5/24/19 16:00,500
5/24/19 16:00,498
5/24/19 16:00,498
5/24/19 16:00,507
5/24/19 16:00,511
5/24/19 16:00,515
5/24/19 16:00,506
5/24/19 16:00,513
5/24/19 16:00,504
5/24/19 16:00,481
5/24/19 16:00,509
5/24/19 16:00,510
5/24/19 16:00,517
5/24/19 16:00,508
5/24/19 16:00,477
5/24/19 16:00,506
5/24/19 16:00,510
5/24/19 16:00,517
5/24/19 16:00,512
5/24/19 16:00,512
5/24/19 16:00,510
5/24/19 16:00,505
5/24/19 16:00,500
5/24/19 16:00,502
5/24/19 16:00,509
5/24/19 16:00,511
5/24/19 16:00,504
5/24/19 16:00,493
5/24/19 16:00,499
5/24/19 16:00,508
5/24/19 16:00,509
5/24/19 16:00,505
5/24/19 16:00,478
5/24/19 16:00,511
5/24/19 16:00,515
5/24/19 16:00,519
5/24/19 16:00,499
5/24/19 16:00,517
5/24/19 16:00,511
5/24/19 16:00,513
5/24/19 16:00,511
5/24/19 16:00,503
5/24/19 16:00,497
5/24/19 16:00,481
5/24/19 16:00,504
5/24/19 16:00,509
5/24/19 16:00,508
5/24/19 16:00,514
5/24/19 16:00,505
5/24/19 16:00,507
5/24/19 16:00,507
5/24/19 16:00,503
5/24/19 16:00,508
5/24/19 16:00,492
5/24/19 16:00,511
5/24/19 16:00,509
5/24/19 16:00,507
5/24/19 16:00,495
5/24/19 16:00,495
5/24/19 16:00,502
5/24/19 16:00,509
5/24/19 16:00,513
5/24/19 16:00,518
5/24/19 16:00,490
5/24/19 16:00,508
5/24/19 16:00,511
5/24/19 16:00,510
5/24/19 16:00,502
5/24/19 16:00,505
5/24/19 16:00,516
5/24/19 16:00,507
5/24/19 16:00,486
5/24/19 16:00,509
5/24/19 16:00,510
5/24/19 16:00,518
5/24/19 16:00,511
5/24/19 16:00,508
5/24/19 16:00,505
5/24/19 16:00,489
5/24/19 16:00,508
5/24/19 16:00,508
5/24/19 16:00,506
5/24/19 16:00,512
5/24/19 16:00,502
5/24/19 16:00,509
5/24/19 16:00,502
5/24/19 16:00,506
5/24/19 16:00,508
5/24/19 16:00,498
5/24/19 16:00,490
5/24/19 16:00,458
5/24/19 16:00,528
5/24/19 16:00,533
5/24/19 16:00,522
5/24/19 16:00,520
5/24/19 16:00,510
5/24/19 16:00,500
5/24/19 16:00,510
5/24/19 16:00,506
5/24/19 16:00,495
5/24/19 16:00,501
5/24/19 16:00,507
5/24/19 16:00,508
5/24/19 16:00,495
5/24/19 16:00,507
5/24/19 16:00,486
5/24/19 16:00,506
5/24/19 16:00,512
5/24/19 16:00,507
5/24/19 16:00,515
5/24/19 16:00,507
5/24/19 16:00,509
5/24/19 16:00,509
5/24/19 16:00,503
5/24/19 16:00,509
5/24/19 16:00,503
5/24/19 16:00,507
5/24/19 16:00,500
5/24/19 16:00,503
5/24/19 16:00,502
5/24/19 16:00,499
5/24/19 16:00,512
5/24/19 16:00,513
5/24/19 16:00,509
5/24/19 16:00,513
5/24/19 16:00,505
5/24/19 16:00,507
5/24/19 16:00,505
5/24/19 16:00,494
5/24/19 16:00,512
5/24/19 16:00,503
5/24/19 16:00,497
5/24/19 16:00,504
5/24/19 16:00,506
5/24/19 16:00,514
5/24/19 16:00,504
5/24/19 16:00,499
5/24/19 16:00,508
5/24/19 16:00,490
5/24/19 16:00,506
5/24/19 16:00,508
5/24/19 16:00,513
5/24/19 16:00,510
5/24/19 16:00,506
5/24/19 16:00,512
5/24/19 16:00,503
5/24/19 16:00,507
5/24/19 16:00,497
5/24/19 16:00,453
5/24/19 16:00,521
5/24/19 16:00,525
5/24/19 16:00,528
5/24/19 16:00,514
5/24/19 16:00,514
5/24/19 16:00,516
5/24/19 16:00,506
5/24/19 16:00,510
5/24/19 16:00,503
5/24/19 16:00,500
5/24/19 16:00,499
5/24/19 16:00,479
5/24/19 16:00,506
5/24/19 16:00,509
5/24/19 16:00,508
5/24/19 16:00,513
5/24/19 16:00,488
5/24/19 16:00,500
5/24/19 16:00,509
5/24/19 16:00,514
5/24/19 16:00,518
5/24/19 16:00,509
5/24/19 16:00,513
5/24/19 16:00,508
5/24/19 16:00,506
5/24/19 16:00,481
5/24/19 16:00,499
5/24/19 16:00,516
5/24/19 16:00,510
5/24/19 16:00,513
5/24/19 16:00,515
5/24/19 16:00,506
5/24/19 16:00,507
5/24/19 16:00,501
5/24/19 16:00,510
5/24/19 16:00,496
5/24/19 16:00,502
5/24/19 16:00,511
5/24/19 16:00,506
5/24/19 16:00,509
5/24/19 16:00,497
5/24/19 16:00,493
5/24/19 16:00,504
5/24/19 16:00,506
5/24/19 16:00,512
5/24/19 16:00,512
5/24/19 16:00,507
5/24/19 16:00,514
5/24/19 16:00,503
5/24/19 16:00,499
5/24/19 16:00,511
5/24/19 16:00,506
5/24/19 16:00,511
5/24/19 16:00,506
5/24/19 16:00,500
5/24/19 16:00,495
5/24/19 16:00,501
5/24/19 16:00,504
5/24/19 16:00,455
5/24/19 16:09,512
5/24/19 16:09,513
5/24/19 16:09,496
5/24/19 16:09,500
5/24/19 16:09,503
5/24/19 16:09,497
5/24/19 16:09,516
5/24/19 16:09,509
5/24/19 16:09,515
5/24/19 16:09,507
5/24/19 16:09,507
5/24/19 16:09,511
5/24/19 16:09,499
5/24/19 16:09,510
5/24/19 16:09,502
5/24/19 16:09,452
5/24/19 16:09,524
5/24/19 16:09,511
5/24/19 16:09,506
5/24/19 16:09,504
5/24/19 16:09,509
5/24/19 16:09,504
5/24/19 16:09,506
5/24/19 16:09,516
5/24/19 16:09,505
5/24/19 16:09,507
5/24/19 16:09,508
5/24/19 16:09,490
5/24/19 16:09,496
5/24/19 16:09,499
5/24/19 16:09,501
5/24/19 16:09,516
5/24/19 16:09,508
5/24/19 16:09,501
5/24/19 16:09,493
5/24/19 16:09,516
5/24/19 16:09,522
5/24/19 16:09,512
5/24/19 16:09,520
5/24/19 16:09,492
5/24/19 16:09,500
5/24/19 16:09,501
5/24/19 16:09,509
5/24/19 16:09,521
5/24/19 16:09,510
5/24/19 16:09,512
5/24/19 16:09,512
5/24/19 16:09,503
5/24/19 16:09,513
5/24/19 16:09,500
5/24/19 16:09,491
5/24/19 16:09,495
5/24/19 16:09,504
5/24/19 16:09,515
5/24/19 16:09,506
5/24/19 16:09,511
5/24/19 16:09,510
5/24/19 16:09,502
5/24/19 16:09,511
5/24/19 16:09,500
5/24/19 16:09,506
5/24/19 16:09,504
5/24/19 16:09,501
5/24/19 16:09,502
5/24/19 16:09,487
5/24/19 16:09,498
5/24/19 16:09,511
5/24/19 16:09,509
5/24/19 16:09,517
5/24/19 16:09,507
5/24/19 16:09,512
5/24/19 16:09,507
5/24/19 16:09,503
5/24/19 16:09,513
5/24/19 16:09,456
5/24/19 16:09,523
5/24/19 16:09,518
5/24/19 16:09,494
5/24/19 16:09,503
5/24/19 16:09,508
5/24/19 16:09,521
5/24/19 16:09,515
5/24/19 16:09,508
5/24/19 16:09,513
5/24/19 16:09,485
5/24/19 16:09,494
5/24/19 16:09,506
5/24/19 16:09,510
5/24/19 16:09,517
5/24/19 16:09,504
5/24/19 16:09,513
5/24/19 16:09,505
5/24/19 16:09,481
5/24/19 16:09,501
5/24/19 16:09,506
5/24/19 16:09,517
5/24/19 16:09,511
5/24/19 16:09,510
5/24/19 16:09,513
5/24/19 16:09,503
5/24/19 16:09,511
5/24/19 16:09,505
5/24/19 16:09,503
5/24/19 16:09,503
5/24/19 16:09,480
5/24/19 16:09,513
5/24/19 16:09,511
5/24/19 16:09,514
5/24/19 16:09,516
5/24/19 16:09,506
5/24/19 16:09,514
5/24/19 16:09,505
5/24/19 16:09,505
5/24/19 16:09,505
5/24/19 16:09,478
5/24/19 16:09,507
5/24/19 16:09,507
5/24/19 16:09,511
5/24/19 16:09,513
5/24/19 16:09,505
5/24/19 16:09,513
5/24/19 16:09,491
5/24/19 16:09,506
5/24/19 16:09,496
5/24/19 16:09,501
5/24/19 16:09,517
5/24/19 16:09,510
5/24/19 16:09,511
5/24/19 16:09,512
5/24/19 16:09,503
5/24/19 16:09,513
5/24/19 16:09,502
5/24/19 16:09,504
5/24/19 16:09,460
5/24/19 16:09,504
5/24/19 16:09,510
5/24/19 16:09,513
5/24/19 16:09,521
5/24/19 16:09,518
5/24/19 16:09,515
5/24/19 16:09,514
5/24/19 16:09,499
5/24/19 16:09,507
5/24/19 16:09,494
5/24/19 16:09,489
5/24/19 16:09,508
5/24/19 16:09,502
5/24/19 16:09,508
5/24/19 16:09,507
5/24/19 16:09,503
5/24/19 16:09,499
5/24/19 16:09,485
5/24/19 16:09,509
5/24/19 16:09,514
5/24/19 16:09,510
5/24/19 16:09,518
5/24/19 16:09,507
5/24/19 16:09,513
5/24/19 16:09,509
5/24/19 16:09,503
5/24/19 16:09,507
5/24/19 16:09,482
5/24/19 16:09,510
5/24/19 16:09,514
5/24/19 16:09,510
5/24/19 16:09,517
5/24/19 16:09,504
5/24/19 16:09,513
5/24/19 16:09,501
5/24/19 16:09,492
5/24/19 16:09,501
5/24/19 16:09,502
5/24/19 16:09,516
5/24/19 16:09,511
5/24/19 16:09,508
5/24/19 16:09,514
5/24/19 16:09,502
5/24/19 16:09,509
5/24/19 16:09,505
5/24/19 16:09,499
5/24/19 16:09,482
5/24/19 16:09,498
5/24/19 16:09,516
5/24/19 16:09,511
5/24/19 16:09,510
5/24/19 16:09,514
5/24/19 16:09,503
5/24/19 16:09,513
5/24/19 16:09,505
5/24/19 16:09,502
5/24/19 16:09,508
5/24/19 16:09,436
5/24/19 16:09,508
5/24/19 16:09,520
5/24/19 16:09,522
5/24/19 16:09,523
5/24/19 16:09,510
5/24/19 16:09,517
5/24/19 16:09,495
5/24/19 16:09,488
5/24/19 16:09,509
5/24/19 16:09,505
5/24/19 16:09,515
5/24/19 16:09,506
5/24/19 16:09,508
5/24/19 16:09,509
5/24/19 16:09,498
5/24/19 16:09,510
5/24/19 16:09,502
5/24/19 16:09,505
5/24/19 16:09,507
5/24/19 16:09,500
5/24/19 16:09,509
5/24/19 16:09,502
5/24/19 16:09,504
5/24/19 16:09,485
5/24/19 16:09,500
5/24/19 16:09,517
5/24/19 16:09,512
5/24/19 16:09,514
5/24/19 16:09,512
5/24/19 16:09,504
5/24/19 16:09,489
5/24/19 16:09,506
5/24/19 16:09,518
5/24/19 16:09,517
5/24/19 16:09,509
5/24/19 16:09,516
5/24/19 16:09,506
5/24/19 16:09,507
5/24/19 16:09,489
5/24/19 16:09,496
5/24/19 16:09,516
5/24/19 16:09,507
5/24/19 16:09,513
5/24/19 16:09,509
5/24/19 16:09,503
5/24/19 16:09,510
5/24/19 16:09,501
5/24/19 16:09,507
5/24/19 16:09,505
5/24/19 16:09,491
5/24/19 16:09,494
5/24/19 16:09,503
5/24/19 16:09,516
5/24/19 16:09,514
5/24/19 16:09,506
5/24/19 16:09,503
5/24/19 16:09,462
5/24/19 16:09,528
5/24/19 16:09,525
5/24/19 16:09,499
5/24/19 16:09,521
5/24/19 16:09,508
5/24/19 16:09,519
5/24/19 16:09,507
5/24/19 16:09,497
5/24/19 16:09,494
5/24/19 16:09,496
5/24/19 16:09,510
5/24/19 16:09,506
5/24/19 16:09,506
5/24/19 16:09,510
5/24/19 16:09,500
5/24/19 16:09,510
5/24/19 16:09,503
5/24/19 16:09,502
5/24/19 16:09,509
5/24/19 16:09,500
5/24/19 16:09,509
5/24/19 16:09,504
5/24/19 16:09,503
5/24/19 16:09,501
5/24/19 16:09,482
5/24/19 16:09,511
5/24/19 16:09,511
5/24/19 16:09,512
5/24/19 16:09,517
5/24/19 16:09,507
5/24/19 16:09,515
5/24/19 16:09,497
5/24/19 16:09,510
5/24/19 16:09,515
5/24/19 16:09,498
5/24/19 16:09,503
5/24/19 16:09,503
5/24/19 16:09,508
5/24/19 16:09,512
5/24/19 16:09,504
5/24/19 16:09,514
5/24/19 16:09,501
5/24/19 16:09,498
5/24/19 16:09,509
5/24/19 16:09,506
5/24/19 16:09,515
5/24/19 16:09,504
5/24/19 16:09,506
5/24/19 16:09,491
5/24/19 16:09,499
5/24/19 16:09,513
5/24/19 16:09,495
5/24/19 16:09,511
5/24/19 16:09,515
5/24/19 16:09,494
5/24/19 16:09,504
5/24/19 16:09,505
5/24/19 16:09,458
5/24/19 16:09,528
5/24/19 16:09,520
5/24/19 16:09,522
5/24/19 16:09,510
5/24/19 16:09,506
5/24/19 16:09,510
5/24/19 16:09,488
5/24/19 16:09,506
5/24/19 16:09,502
5/24/19 16:09,509
5/24/19 16:09,507
5/24/19 16:09,501
5/24/19 16:09,511
5/24/19 16:09,499
5/24/19 16:09,507
5/24/19 16:09,504
5/24/19 16:09,476
5/24/19 16:09,502
5/24/19 16:09,505
5/24/19 16:09,517
5/24/19 16:09,515
5/24/19 16:09,510
5/24/19 16:09,517
5/24/19 16:09,505
5/24/19 16:09,513
5/24/19 16:09,504
5/24/19 16:09,498
5/24/19 16:09,496
5/24/19 16:09,498
5/24/19 16:09,514
5/24/19 16:09,513
5/24/19 16:09,509
5/24/19 16:09,515
5/24/19 16:09,503
5/24/19 16:09,508
5/24/19 16:09,482
5/24/19 16:09,505
5/24/19 16:09,519
5/24/19 16:09,504
5/24/19 16:09,515
5/24/19 16:09,507
5/24/19 16:09,505
5/24/19 16:09,511
5/24/19 16:09,500
5/24/19 16:09,508
5/24/19 16:09,501
5/24/19 16:09,477
5/24/19 16:09,509
5/24/19 16:09,507
5/24/19 16:09,518
5/24/19 16:09,509
5/24/19 16:09,509
5/24/19 16:09,506
5/24/19 16:09,479
5/24/19 16:09,509
5/24/19 16:09,511
5/24/19 16:09,512
5/24/19 16:09,457
5/24/19 16:09,520
5/24/19 16:09,515
5/24/19 16:09,519
5/24/19 16:09,494
5/24/19 16:09,517
5/24/19 16:09,513
5/24/19 16:09,518
5/24/19 16:09,504
5/24/19 16:09,505
5/24/19 16:09,506
5/24/19 16:09,498
5/24/19 16:09,506
5/24/19 16:09,496
5/24/19 16:09,496
5/24/19 16:09,508
5/24/19 16:09,504
5/24/19 16:09,513
5/24/19 16:09,488
5/24/19 16:09,503
5/24/19 16:09,511
5/24/19 16:09,507
5/24/19 16:09,515
5/24/19 16:09,504
5/24/19 16:09,511
5/24/19 16:09,509
5/24/19 16:09,497
5/24/19 16:09,509
5/24/19 16:09,508
5/24/19 16:09,513
5/24/19 16:09,511
5/24/19 16:09,502
5/24/19 16:09,496
5/24/19 16:09,497
5/24/19 16:09,508
5/24/19 16:09,505
5/24/19 16:09,510
5/24/19 16:09,518
5/24/19 16:09,506
5/24/19 16:09,512
5/24/19 16:09,507
5/24/19 16:09,484
5/24/19 16:09,503
5/24/19 16:09,501
5/24/19 16:09,505
5/24/19 16:09,513
5/24/19 16:09,510
5/24/19 16:09,516
5/24/19 16:09,486
5/24/19 16:09,509
5/24/19 16:09,508
5/24/19 16:09,508
5/24/19 16:09,514
5/24/19 16:09,504
5/24/19 16:09,513
5/24/19 16:09,506
5/24/19 16:09,502
5/24/19 16:09,509
5/24/19 16:09,484
5/24/19 16:09,508
5/24/19 16:09,520
5/24/19 16:09,503
5/24/19 16:09,519
5/24/19 16:09,497
5/24/19 16:09,517
5/24/19 16:09,512
5/24/19 16:09,510
5/24/19 16:09,511
5/24/19 16:09,497
5/24/19 16:09,503
5/24/19 16:09,495
5/24/19 16:09,504
5/24/19 16:09,513
5/24/19 16:09,502
5/24/19 16:09,512
5/24/19 16:09,505
5/24/19 16:09,495
5/24/19 16:09,496
5/24/19 16:09,503
5/24/19 16:09,523
5/24/19 16:09,510
5/24/19 16:09,511
5/24/19 16:09,503
5/24/19 16:09,505
5/24/19 16:09,518
5/24/19 16:09,492
5/24/19 16:09,506
5/24/19 16:09,513
5/24/19 16:09,507
5/24/19 16:09,515
5/24/19 16:09,507
5/24/19 16:09,507
5/24/19 16:09,503
5/24/19 16:09,505
5/24/19 16:09,516
5/24/19 16:09,506
5/24/19 16:09,493
5/24/19 16:09,498
5/24/19 16:09,500
5/24/19 16:09,514
5/24/19 16:09,502
5/24/19 16:09,508
5/24/19 16:09,507
5/24/19 16:09,490
5/24/19 16:09,511
5/24/19 16:09,505
5/24/19 16:09,493
5/24/19 16:09,508
5/24/19 16:09,506
5/24/19 16:09,517
5/24/19 16:09,504
5/24/19 16:09,502
5/24/19 16:09,513
5/24/19 16:09,508
5/24/19 16:09,515
5/24/19 16:09,483
5/24/19 16:09,504
5/24/19 16:09,455
5/24/19 16:09,523
5/24/19 16:09,526
5/24/19 16:09,517
5/24/19 16:09,518
5/24/19 16:09,504
5/24/19 16:09,507
5/24/19 16:09,514
5/24/19 16:09,500
5/24/19 16:09,506
5/24/19 16:09,501
5/24/19 16:09,498
5/24/19 16:09,494
5/24/19 16:09,492
5/24/19 16:09,498
5/24/19 16:09,506
5/24/19 16:09,506
5/24/19 16:09,516
5/24/19 16:09,505
5/24/19 16:09,514
5/24/19 16:09,508
5/24/19 16:09,506
5/24/19 16:09,512
5/24/19 16:09,493
5/24/19 16:09,507
5/24/19 16:09,498
5/24/19 16:09,506
5/24/19 16:09,517
5/24/19 16:09,505
5/24/19 16:09,509
5/24/19 16:09,492
5/24/19 16:09,509
5/24/19 16:09,519
5/24/19 16:09,509
5/24/19 16:09,517
5/24/19 16:09,508
5/24/19 16:09,508
5/24/19 16:09,511
5/24/19 16:09,499
5/24/19 16:09,490
5/24/19 16:09,495
5/24/19 16:09,500
5/24/19 16:09,516
5/24/19 16:09,509
5/24/19 16:09,518
5/24/19 16:09,489
5/24/19 16:09,491
5/24/19 16:09,514
5/24/19 16:09,509
5/24/19 16:09,520
5/24/19 16:09,510
5/24/19 16:09,510
5/24/19 16:09,511
5/24/19 16:09,501
5/24/19 16:09,511
5/24/19 16:09,479
5/24/19 16:09,495
5/24/19 16:09,514
5/24/19 16:09,496
5/24/19 16:09,510
5/24/19 16:09,522
5/24/19 16:09,523
5/24/19 16:09,518
5/24/19 16:09,507
5/24/19 16:09,515
5/24/19 16:09,475
5/24/19 16:09,499
5/24/19 16:09,510
5/24/19 16:09,505
5/24/19 16:09,513
5/24/19 16:09,504
5/24/19 16:09,507
5/24/19 16:09,506
5/24/19 16:09,482
5/24/19 16:09,494
5/24/19 16:09,501
5/24/19 16:09,515
5/24/19 16:09,517
5/24/19 16:09,507
5/24/19 16:09,516
5/24/19 16:09,485
5/24/19 16:09,507
5/24/19 16:09,501
5/24/19 16:09,510
5/24/19 16:09,522
5/24/19 16:09,508
5/24/19 16:09,515
5/24/19 16:09,508
5/24/19 16:09,504
5/24/19 16:09,510
5/24/19 16:09,500
5/24/19 16:09,508
5/24/19 16:09,506
5/24/19 16:09,501
5/24/19 16:09,489
5/24/19 16:09,487
5/24/19 16:09,516
5/24/19 16:09,512
5/24/19 16:09,511
5/24/19 16:09,510
5/24/19 16:09,478
5/24/19 16:09,511
5/24/19 16:09,515
5/24/19 16:09,513
5/24/19 16:09,518
5/24/19 16:09,506
5/24/19 16:09,513
5/24/19 16:09,503
5/24/19 16:09,504
5/24/19 16:09,510
5/24/19 16:09,468
5/24/19 16:09,503
5/24/19 16:09,509
5/24/19 16:09,513
5/24/19 16:09,517
5/24/19 16:09,503
5/24/19 16:09,454
5/24/19 16:09,521
5/24/19 16:09,518
5/24/19 16:18,526
5/24/19 16:18,525
5/24/19 16:18,531
5/24/19 16:18,509
5/24/19 16:18,500
5/24/19 16:18,511
5/24/19 16:18,509
5/24/19 16:18,515
5/24/19 16:18,503
5/24/19 16:18,505
5/24/19 16:18,507
5/24/19 16:18,500
5/24/19 16:18,509
5/24/19 16:18,497
5/24/19 16:18,497
5/24/19 16:18,491
5/24/19 16:18,503
5/24/19 16:18,516
5/24/19 16:18,506
5/24/19 16:18,511
5/24/19 16:18,511
5/24/19 16:18,497
5/24/19 16:18,496
5/24/19 16:18,503
5/24/19 16:18,517
5/24/19 16:18,514
5/24/19 16:18,509
5/24/19 16:18,496
5/24/19 16:18,487
5/24/19 16:18,512
5/24/19 16:18,516
5/24/19 16:18,514
5/24/19 16:18,518
5/24/19 16:18,506
5/24/19 16:18,511
5/24/19 16:18,507
5/24/19 16:18,503
5/24/19 16:18,510
5/24/19 16:18,498
5/24/19 16:18,499
5/24/19 16:18,485
5/24/19 16:18,498
5/24/19 16:18,512
5/24/19 16:18,505
5/24/19 16:18,514
5/24/19 16:18,507
5/24/19 16:18,505
5/24/19 16:18,512
5/24/19 16:18,502
5/24/19 16:18,508
5/24/19 16:18,480
5/24/19 16:18,497
5/24/19 16:18,514
5/24/19 16:18,507
5/24/19 16:18,518
5/24/19 16:18,509
5/24/19 16:18,499
5/24/19 16:18,510
5/24/19 16:18,505
5/24/19 16:18,513
5/24/19 16:18,504
5/24/19 16:18,448
5/24/19 16:18,523
5/24/19 16:18,518
5/24/19 16:18,526
5/24/19 16:18,516
