X,Bin ECG
12/9/18 14:09,507
12/9/18 14:09,507
12/9/18 14:09,507
12/9/18 14:09,507
12/9/18 14:09,506
12/9/18 14:09,508
12/9/18 14:09,508
12/9/18 14:09,506
12/9/18 14:09,507
12/9/18 14:09,507
12/9/18 14:09,508
12/9/18 14:09,507
12/9/18 14:09,507
12/9/18 14:09,508
12/9/18 14:09,507
12/9/18 14:09,507
12/9/18 14:09,507
12/9/18 14:09,508
12/9/18 14:09,506
12/9/18 14:09,507
12/9/18 14:09,520
12/9/18 14:09,515
12/9/18 14:09,503
12/9/18 14:09,507
12/9/18 14:09,505
12/9/18 14:09,505
12/9/18 14:09,514
12/9/18 14:09,509
12/9/18 14:09,515
12/9/18 14:09,513
12/9/18 14:09,510
12/9/18 14:09,512
12/9/18 14:09,505
12/9/18 14:09,506
12/9/18 14:09,509
12/9/18 14:09,507
12/9/18 14:09,509
12/9/18 14:09,507
12/9/18 14:09,506
12/9/18 14:09,507
12/9/18 14:09,506
12/9/18 14:09,505
12/9/18 14:09,504
12/9/18 14:09,506
12/9/18 14:09,506
12/9/18 14:09,506
12/9/18 14:09,505
12/9/18 14:09,504
12/9/18 14:09,506
12/9/18 14:09,507
12/9/18 14:09,507
12/9/18 14:09,508
12/9/18 14:09,508
12/9/18 14:09,507
12/9/18 14:09,508
12/9/18 14:09,506
12/9/18 14:09,507
12/9/18 14:09,507
12/9/18 14:09,508
12/9/18 14:09,509
12/9/18 14:09,507
12/9/18 14:09,509
12/9/18 14:09,510
12/9/18 14:09,508
12/9/18 14:09,509
12/9/18 14:09,508
12/9/18 14:09,509
12/9/18 14:09,511
12/9/18 14:09,509
12/9/18 14:09,510
12/9/18 14:09,510
12/9/18 14:09,510
12/9/18 14:09,509
12/9/18 14:09,510
12/9/18 14:09,509
12/9/18 14:09,508
12/9/18 14:09,509
12/9/18 14:09,508
12/9/18 14:09,509
12/9/18 14:09,509
12/9/18 14:09,508
12/9/18 14:09,509
12/9/18 14:09,509
12/9/18 14:09,508
12/9/18 14:09,510
12/9/18 14:09,508
12/9/18 14:09,507
12/9/18 14:09,508
12/9/18 14:09,508
12/9/18 14:09,508
12/9/18 14:09,507
12/9/18 14:09,508
12/9/18 14:09,507
12/9/18 14:09,508
12/9/18 14:09,507
12/9/18 14:09,508
12/9/18 14:09,508
12/9/18 14:09,508
12/9/18 14:09,507
12/9/18 14:09,509
12/9/18 14:09,508
12/9/18 14:09,508
12/9/18 14:09,510
12/9/18 14:09,510
12/9/18 14:09,509
12/9/18 14:09,510
12/9/18 14:09,507
12/9/18 14:09,509
12/9/18 14:09,509
12/9/18 14:09,508
12/9/18 14:09,509
12/9/18 14:09,506
12/9/18 14:09,507
12/9/18 14:09,507
12/9/18 14:09,509
12/9/18 14:09,507
12/9/18 14:09,508
12/9/18 14:09,507
12/9/18 14:09,505
12/9/18 14:09,509
12/9/18 14:09,508
12/9/18 14:09,508
12/9/18 14:09,509
12/9/18 14:09,509
12/9/18 14:09,508
12/9/18 14:09,507
12/9/18 14:09,507
12/9/18 14:09,518
12/9/18 14:09,513
12/9/18 14:09,506
12/9/18 14:09,509
12/9/18 14:09,506
12/9/18 14:09,506
12/9/18 14:09,520
12/9/18 14:09,512
12/9/18 14:09,513
12/9/18 14:09,511
12/9/18 14:09,507
12/9/18 14:09,511
12/9/18 14:09,513
12/9/18 14:09,506
12/9/18 14:09,506
12/9/18 14:09,506
12/9/18 14:09,508
12/9/18 14:09,510
12/9/18 14:09,507
12/9/18 14:09,506
12/9/18 14:09,505
12/9/18 14:09,505
12/9/18 14:09,506
12/9/18 14:09,505
12/9/18 14:09,504
12/9/18 14:09,506
12/9/18 14:09,505
12/9/18 14:09,507
12/9/18 14:09,506
12/9/18 14:09,506
12/9/18 14:09,506
12/9/18 14:09,506
12/9/18 14:09,506
12/9/18 14:09,507
12/9/18 14:09,506
12/9/18 14:09,508
12/9/18 14:09,508
12/9/18 14:09,507
12/9/18 14:09,508
12/9/18 14:09,508
12/9/18 14:09,509
12/9/18 14:09,509
12/9/18 14:09,509
12/9/18 14:09,507
12/9/18 14:09,508
12/9/18 14:09,509
12/9/18 14:09,509
12/9/18 14:09,509
12/9/18 14:09,509
12/9/18 14:09,510
12/9/18 14:09,511
12/9/18 14:09,509
12/9/18 14:09,509
12/9/18 14:09,509
12/9/18 14:09,510
12/9/18 14:09,509
12/9/18 14:09,508
12/9/18 14:09,510
12/9/18 14:09,509
12/9/18 14:09,509
12/9/18 14:09,508
12/9/18 14:09,510
12/9/18 14:09,509
12/9/18 14:09,508
12/9/18 14:09,509
12/9/18 14:09,508
12/9/18 14:09,510
12/9/18 14:09,509
12/9/18 14:09,509
12/9/18 14:09,507
12/9/18 14:09,509
12/9/18 14:09,509
12/9/18 14:09,508
12/9/18 14:09,508
12/9/18 14:09,508
12/9/18 14:09,507
12/9/18 14:09,509
12/9/18 14:09,506
12/9/18 14:09,508
12/9/18 14:09,509
12/9/18 14:09,507
12/9/18 14:09,509
12/9/18 14:09,509
12/9/18 14:09,509
12/9/18 14:09,509
12/9/18 14:09,508
12/9/18 14:09,507
12/9/18 14:09,508
12/9/18 14:09,509
12/9/18 14:09,509
12/9/18 14:09,507
12/9/18 14:09,509
12/9/18 14:09,508
12/9/18 14:09,508
12/9/18 14:09,507
12/9/18 14:09,508
12/9/18 14:09,508
12/9/18 14:09,508
12/9/18 14:09,506
12/9/18 14:09,508
12/9/18 14:09,508
12/9/18 14:09,507
12/9/18 14:09,506
12/9/18 14:09,507
12/9/18 14:09,507
12/9/18 14:09,508
12/9/18 14:09,518
12/9/18 14:09,507
12/9/18 14:09,508
12/9/18 14:09,509
12/9/18 14:09,506
12/9/18 14:09,504
12/9/18 14:09,509
12/9/18 14:09,517
12/9/18 14:09,510
12/9/18 14:09,513
12/9/18 14:09,514
12/9/18 14:09,507
12/9/18 14:09,510
12/9/18 14:09,510
12/9/18 14:09,508
12/9/18 14:09,507
12/9/18 14:09,504
12/9/18 14:09,505
12/9/18 14:09,510
12/9/18 14:09,510
12/9/18 14:09,507
12/9/18 14:09,507
12/9/18 14:09,507
12/9/18 14:09,507
12/9/18 14:09,505
12/9/18 14:09,505
12/9/18 14:09,506
12/9/18 14:09,505
12/9/18 14:09,505
12/9/18 14:09,506
12/9/18 14:09,507
12/9/18 14:09,507
12/9/18 14:09,506
12/9/18 14:09,506
12/9/18 14:09,505
12/9/18 14:09,506
12/9/18 14:09,503
12/9/18 14:09,505
12/9/18 14:09,508
12/9/18 14:09,510
12/9/18 14:09,509
12/9/18 14:09,508
12/9/18 14:09,509
12/9/18 14:09,510
12/9/18 14:09,510
12/9/18 14:09,509
12/9/18 14:09,509
12/9/18 14:09,509
12/9/18 14:09,510
12/9/18 14:09,509
12/9/18 14:09,509
12/9/18 14:09,510
12/9/18 14:09,510
12/9/18 14:09,508
12/9/18 14:09,509
12/9/18 14:09,509
12/9/18 14:09,509
12/9/18 14:09,510
12/9/18 14:09,511
12/9/18 14:09,511
12/9/18 14:09,509
12/9/18 14:09,510
12/9/18 14:09,507
12/9/18 14:09,508
12/9/18 14:09,508
12/9/18 14:09,507
12/9/18 14:09,509
12/9/18 14:09,506
12/9/18 14:09,508
12/9/18 14:09,507
12/9/18 14:09,507
12/9/18 14:09,508
12/9/18 14:09,508
12/9/18 14:09,509
12/9/18 14:09,508
12/9/18 14:09,506
12/9/18 14:09,507
12/9/18 14:09,507
12/9/18 14:09,508
12/9/18 14:09,509
12/9/18 14:09,508
12/9/18 14:09,509
12/9/18 14:09,509
12/9/18 14:09,508
12/9/18 14:09,507
12/9/18 14:09,508
12/9/18 14:09,509
12/9/18 14:09,509
12/9/18 14:09,507
12/9/18 14:09,509
12/9/18 14:09,507
12/9/18 14:09,508
12/9/18 14:09,507
12/9/18 14:09,508
12/9/18 14:09,508
12/9/18 14:09,506
12/9/18 14:09,508
12/9/18 14:09,507
12/9/18 14:09,508
12/9/18 14:09,509
12/9/18 14:09,507
12/9/18 14:09,509
12/9/18 14:09,509
12/9/18 14:09,507
12/9/18 14:09,509
12/9/18 14:09,504
12/9/18 14:09,517
12/9/18 14:09,505
12/9/18 14:09,509
12/9/18 14:09,510
12/9/18 14:09,508
12/9/18 14:09,503
12/9/18 14:09,515
12/9/18 14:09,517
12/9/18 14:09,514
12/9/18 14:09,510
12/9/18 14:09,506
12/9/18 14:09,506
12/9/18 14:09,510
12/9/18 14:09,505
12/9/18 14:09,509
12/9/18 14:09,510
12/9/18 14:09,513
12/9/18 14:09,510
12/9/18 14:09,507
12/9/18 14:09,508
12/9/18 14:09,507
12/9/18 14:09,505
12/9/18 14:09,507
12/9/18 14:09,506
12/9/18 14:09,505
12/9/18 14:09,505
12/9/18 14:09,506
12/9/18 14:09,505
12/9/18 14:09,506
12/9/18 14:09,506
12/9/18 14:09,507
12/9/18 14:09,506
12/9/18 14:09,506
12/9/18 14:09,508
12/9/18 14:09,507
12/9/18 14:09,507
12/9/18 14:09,508
12/9/18 14:09,508
12/9/18 14:09,508
12/9/18 14:09,508
12/9/18 14:09,509
12/9/18 14:09,508
12/9/18 14:09,508
12/9/18 14:09,509
12/9/18 14:09,508
12/9/18 14:09,508
12/9/18 14:09,509
12/9/18 14:09,508
12/9/18 14:09,508
12/9/18 14:09,509
12/9/18 14:09,509
12/9/18 14:09,511
12/9/18 14:09,510
12/9/18 14:09,507
12/9/18 14:09,509
12/9/18 14:09,509
12/9/18 14:09,509
12/9/18 14:09,509
12/9/18 14:09,509
12/9/18 14:09,510
12/9/18 14:09,509
12/9/18 14:09,507
12/9/18 14:09,508
12/9/18 14:09,509
12/9/18 14:09,508
12/9/18 14:09,508
12/9/18 14:09,508
12/9/18 14:09,508
12/9/18 14:09,507
12/9/18 14:09,508
12/9/18 14:09,509
12/9/18 14:09,508
12/9/18 14:09,509
12/9/18 14:09,509
12/9/18 14:09,507
12/9/18 14:09,507
12/9/18 14:09,508
12/9/18 14:09,508
12/9/18 14:09,509
12/9/18 14:09,508
12/9/18 14:09,508
12/9/18 14:09,509
12/9/18 14:09,509
12/9/18 14:09,508
12/9/18 14:09,507
12/9/18 14:09,507
12/9/18 14:09,507
12/9/18 14:09,509
12/9/18 14:09,508
12/9/18 14:09,508
12/9/18 14:09,507
12/9/18 14:09,508
12/9/18 14:09,508
12/9/18 14:09,508
12/9/18 14:09,507
12/9/18 14:09,508
12/9/18 14:09,507
12/9/18 14:09,508
12/9/18 14:09,506
12/9/18 14:09,509
12/9/18 14:09,509
12/9/18 14:09,506
12/9/18 14:09,508
12/9/18 14:09,507
12/9/18 14:09,508
12/9/18 14:09,506
12/9/18 14:09,508
12/9/18 14:09,514
12/9/18 14:09,514
12/9/18 14:09,503
12/9/18 14:09,508
12/9/18 14:09,504
12/9/18 14:09,503
12/9/18 14:09,515
12/9/18 14:09,517
12/9/18 14:09,516
12/9/18 14:09,513
12/9/18 14:09,509
12/9/18 14:09,507
12/9/18 14:09,513
12/9/18 14:09,510
12/9/18 14:09,505
12/9/18 14:09,506
12/9/18 14:09,504
12/9/18 14:09,507
12/9/18 14:09,507
12/9/18 14:09,507
12/9/18 14:09,508
12/9/18 14:09,509
12/9/18 14:09,506
12/9/18 14:09,506
12/9/18 14:09,509
12/9/18 14:09,506
12/9/18 14:09,506
12/9/18 14:09,506
12/9/18 14:09,506
12/9/18 14:09,506
12/9/18 14:09,506
12/9/18 14:09,507
12/9/18 14:09,504
12/9/18 14:09,505
12/9/18 14:09,508
12/9/18 14:09,507
12/9/18 14:09,509
12/9/18 14:09,506
12/9/18 14:09,508
12/9/18 14:09,509
12/9/18 14:09,508
12/9/18 14:09,509
12/9/18 14:09,509
12/9/18 14:09,509
12/9/18 14:09,508
12/9/18 14:09,509
12/9/18 14:09,508
12/9/18 14:09,509
12/9/18 14:09,508
12/9/18 14:09,509
12/9/18 14:09,509
12/9/18 14:09,510
12/9/18 14:09,508
12/9/18 14:09,509
12/9/18 14:09,509
12/9/18 14:09,507
12/9/18 14:09,508
12/9/18 14:09,508
12/9/18 14:09,509
12/9/18 14:09,509
12/9/18 14:09,508
12/9/18 14:09,509
12/9/18 14:09,509
12/9/18 14:09,509
12/9/18 14:09,509
12/9/18 14:09,508
12/9/18 14:09,507
12/9/18 14:09,507
12/9/18 14:09,509
12/9/18 14:09,507
12/9/18 14:09,505
12/9/18 14:09,504
12/9/18 14:09,508
12/9/18 14:09,509
12/9/18 14:09,503
12/9/18 14:09,506
12/9/18 14:09,510
12/9/18 14:09,511
12/9/18 14:09,510
12/9/18 14:09,510
12/9/18 14:09,508
12/9/18 14:09,510
12/9/18 14:09,509
12/9/18 14:09,509
12/9/18 14:09,510
12/9/18 14:09,508
12/9/18 14:09,509
12/9/18 14:09,509
12/9/18 14:09,510
12/9/18 14:09,508
12/9/18 14:09,510
12/9/18 14:09,508
12/9/18 14:09,506
12/9/18 14:09,507
12/9/18 14:09,509
12/9/18 14:09,509
12/9/18 14:09,509
12/9/18 14:09,508
12/9/18 14:09,506
12/9/18 14:09,506
12/9/18 14:09,507
12/9/18 14:09,507
12/9/18 14:09,507
12/9/18 14:09,504
12/9/18 14:09,520
12/9/18 14:09,514
12/9/18 14:09,504
12/9/18 14:09,511
12/9/18 14:09,508
12/9/18 14:09,504
12/9/18 14:09,515
12/9/18 14:09,515
12/9/18 14:09,517
12/9/18 14:09,515
12/9/18 14:09,511
12/9/18 14:09,507
12/9/18 14:09,510
12/9/18 14:09,508
12/9/18 14:09,511
12/9/18 14:09,505
12/9/18 14:09,508
12/9/18 14:09,508
12/9/18 14:09,507
12/9/18 14:09,506
12/9/18 14:09,506
12/9/18 14:09,505
12/9/18 14:09,505
12/9/18 14:09,504
12/9/18 14:09,503
12/9/18 14:09,504
12/9/18 14:09,504
12/9/18 14:09,505
12/9/18 14:09,505
12/9/18 14:09,506
12/9/18 14:09,501
12/9/18 14:09,502
12/9/18 14:09,505
12/9/18 14:09,507
12/9/18 14:09,507
12/9/18 14:09,509
12/9/18 14:09,509
12/9/18 14:09,508
12/9/18 14:09,507
12/9/18 14:09,508
12/9/18 14:09,507
12/9/18 14:09,509
12/9/18 14:09,511
12/9/18 14:09,511
12/9/18 14:09,508
12/9/18 14:09,508
12/9/18 14:09,509
12/9/18 14:09,510
12/9/18 14:09,509
12/9/18 14:09,507
12/9/18 14:18,507
12/9/18 14:18,508
12/9/18 14:18,506
12/9/18 14:18,504
12/9/18 14:18,520
12/9/18 14:18,516
12/9/18 14:18,510
12/9/18 14:18,505
12/9/18 14:18,500
12/9/18 14:18,499
12/9/18 14:18,505
12/9/18 14:18,515
12/9/18 14:18,510
12/9/18 14:18,509
12/9/18 14:18,510
12/9/18 14:18,510
12/9/18 14:18,506
12/9/18 14:18,504
12/9/18 14:18,505
12/9/18 14:18,502
12/9/18 14:18,508
12/9/18 14:18,514
12/9/18 14:18,510
12/9/18 14:18,505
12/9/18 14:18,508
12/9/18 14:18,506
12/9/18 14:18,506
12/9/18 14:18,506
12/9/18 14:18,502
12/9/18 14:18,503
12/9/18 14:18,505
12/9/18 14:18,506
12/9/18 14:18,508
12/9/18 14:18,505
12/9/18 14:18,509
12/9/18 14:18,508
12/9/18 14:18,509
12/9/18 14:18,507
12/9/18 14:18,509
12/9/18 14:18,509
12/9/18 14:18,507
12/9/18 14:18,510
12/9/18 14:18,507
12/9/18 14:18,510
12/9/18 14:18,509
12/9/18 14:18,510
12/9/18 14:18,510
12/9/18 14:18,508
12/9/18 14:18,509
12/9/18 14:18,508
12/9/18 14:18,510
12/9/18 14:18,510
12/9/18 14:18,510
12/9/18 14:18,509
12/9/18 14:18,508
12/9/18 14:18,509
12/9/18 14:18,508
12/9/18 14:18,509
12/9/18 14:18,508
12/9/18 14:18,508
12/9/18 14:18,508
12/9/18 14:18,510
12/9/18 14:18,509
12/9/18 14:18,510
12/9/18 14:18,508
12/9/18 14:18,509
12/9/18 14:18,508
12/9/18 14:18,507
12/9/18 14:18,509
12/9/18 14:18,509
12/9/18 14:18,510
12/9/18 14:18,507
12/9/18 14:18,507
12/9/18 14:18,507
12/9/18 14:18,508
12/9/18 14:18,508
12/9/18 14:18,508
12/9/18 14:18,507
12/9/18 14:18,509
12/9/18 14:18,505
12/9/18 14:18,508
12/9/18 14:18,510
12/9/18 14:18,508
12/9/18 14:18,510
12/9/18 14:18,509
12/9/18 14:18,509
12/9/18 14:18,510
12/9/18 14:18,508
12/9/18 14:18,508
12/9/18 14:18,510
12/9/18 14:18,509
12/9/18 14:18,508
12/9/18 14:18,508
12/9/18 14:18,507
12/9/18 14:18,510
12/9/18 14:18,509
12/9/18 14:18,507
12/9/18 14:18,507
12/9/18 14:18,507
12/9/18 14:18,506
12/9/18 14:18,507
12/9/18 14:18,508
12/9/18 14:18,507
12/9/18 14:18,508
12/9/18 14:18,507
12/9/18 14:18,508
12/9/18 14:18,508
12/9/18 14:18,507
12/9/18 14:18,508
12/9/18 14:18,508
12/9/18 14:18,508
12/9/18 14:18,508
12/9/18 14:18,509
12/9/18 14:18,525
12/9/18 14:18,516
12/9/18 14:18,507
12/9/18 14:18,505
12/9/18 14:18,499
12/9/18 14:18,502
12/9/18 14:18,507
12/9/18 14:18,516
12/9/18 14:18,514
12/9/18 14:18,510
12/9/18 14:18,511
12/9/18 14:18,510
12/9/18 14:18,509
12/9/18 14:18,505
12/9/18 14:18,504
12/9/18 14:18,508
12/9/18 14:18,510
12/9/18 14:18,506
12/9/18 14:18,507
12/9/18 14:18,506
12/9/18 14:18,507
12/9/18 14:18,505
12/9/18 14:18,506
12/9/18 14:18,506
12/9/18 14:18,506
12/9/18 14:18,505
12/9/18 14:18,506
12/9/18 14:18,505
12/9/18 14:18,506
12/9/18 14:18,506
12/9/18 14:18,507
12/9/18 14:18,507
12/9/18 14:18,508
12/9/18 14:18,506
12/9/18 14:18,506
12/9/18 14:18,506
12/9/18 14:18,505
12/9/18 14:18,509
12/9/18 14:18,510
12/9/18 14:18,511
12/9/18 14:18,510
12/9/18 14:18,511
12/9/18 14:18,510
12/9/18 14:18,510
12/9/18 14:18,510
12/9/18 14:18,510
12/9/18 14:18,512
12/9/18 14:18,510
12/9/18 14:18,507
12/9/18 14:18,508
12/9/18 14:18,510
12/9/18 14:18,509
12/9/18 14:18,509
12/9/18 14:18,509
12/9/18 14:18,510
12/9/18 14:18,510
12/9/18 14:18,508
12/9/18 14:18,508
12/9/18 14:18,510
12/9/18 14:18,507
12/9/18 14:18,510
12/9/18 14:18,508
12/9/18 14:18,509
12/9/18 14:18,507
12/9/18 14:18,507
12/9/18 14:18,508
12/9/18 14:18,509
12/9/18 14:18,509
12/9/18 14:18,508
12/9/18 14:18,508
12/9/18 14:18,509
12/9/18 14:18,508
12/9/18 14:18,508
12/9/18 14:18,507
12/9/18 14:18,507
12/9/18 14:18,508
12/9/18 14:18,508
12/9/18 14:18,508
12/9/18 14:18,510
12/9/18 14:18,508
12/9/18 14:18,508
12/9/18 14:18,509
12/9/18 14:18,508
12/9/18 14:18,508
12/9/18 14:18,510
12/9/18 14:18,508
12/9/18 14:18,508
12/9/18 14:18,509
12/9/18 14:18,508
12/9/18 14:18,509
12/9/18 14:18,506
12/9/18 14:18,507
12/9/18 14:18,506
12/9/18 14:18,507
12/9/18 14:18,508
12/9/18 14:18,508
12/9/18 14:18,508
12/9/18 14:18,508
12/9/18 14:18,507
12/9/18 14:18,508
12/9/18 14:18,509
12/9/18 14:18,507
12/9/18 14:18,504
12/9/18 14:18,506
12/9/18 14:18,507
12/9/18 14:18,509
12/9/18 14:18,508
12/9/18 14:18,510
12/9/18 14:18,524
12/9/18 14:18,517
12/9/18 14:18,505
12/9/18 14:18,506
12/9/18 14:18,502
12/9/18 14:18,503
12/9/18 14:18,511
12/9/18 14:18,516
12/9/18 14:18,512
12/9/18 14:18,516
12/9/18 14:18,513
12/9/18 14:18,510
12/9/18 14:18,504
12/9/18 14:18,505
12/9/18 14:18,507
12/9/18 14:18,506
12/9/18 14:18,506
12/9/18 14:18,505
12/9/18 14:18,504
12/9/18 14:18,505
12/9/18 14:18,507
12/9/18 14:18,508
12/9/18 14:18,507
12/9/18 14:18,507
12/9/18 14:18,506
12/9/18 14:18,507
12/9/18 14:18,506
12/9/18 14:18,506
12/9/18 14:18,508
12/9/18 14:18,506
12/9/18 14:18,508
12/9/18 14:18,507
12/9/18 14:18,507
12/9/18 14:18,508
12/9/18 14:18,508
12/9/18 14:18,508
12/9/18 14:18,509
12/9/18 14:18,509
12/9/18 14:18,508
12/9/18 14:18,510
12/9/18 14:18,509
12/9/18 14:18,507
12/9/18 14:18,509
12/9/18 14:18,510
12/9/18 14:18,509
12/9/18 14:18,509
12/9/18 14:18,509
12/9/18 14:18,509
12/9/18 14:18,508
12/9/18 14:18,508
12/9/18 14:18,509
12/9/18 14:18,510
12/9/18 14:18,510
12/9/18 14:18,509
12/9/18 14:18,509
12/9/18 14:18,508
12/9/18 14:18,509
12/9/18 14:18,510
12/9/18 14:18,509
12/9/18 14:18,508
12/9/18 14:18,509
12/9/18 14:18,509
12/9/18 14:18,509
12/9/18 14:18,511
12/9/18 14:18,510
12/9/18 14:18,507
12/9/18 14:18,507
12/9/18 14:18,507
12/9/18 14:18,508
12/9/18 14:18,508
12/9/18 14:18,506
12/9/18 14:18,508
12/9/18 14:18,507
12/9/18 14:18,507
12/9/18 14:18,509
12/9/18 14:18,508
12/9/18 14:18,506
12/9/18 14:18,510
12/9/18 14:18,508
12/9/18 14:18,508
12/9/18 14:18,507
12/9/18 14:18,506
12/9/18 14:18,507
12/9/18 14:18,509
12/9/18 14:18,507
12/9/18 14:18,507
12/9/18 14:18,509
12/9/18 14:18,509
12/9/18 14:18,509
12/9/18 14:18,509
12/9/18 14:18,508
12/9/18 14:18,506
12/9/18 14:18,508
12/9/18 14:18,508
12/9/18 14:18,509
12/9/18 14:18,509
12/9/18 14:18,509
12/9/18 14:18,507
12/9/18 14:18,508
12/9/18 14:18,509
12/9/18 14:18,507
12/9/18 14:18,506
12/9/18 14:18,509
12/9/18 14:18,508
12/9/18 14:18,507
12/9/18 14:18,506
12/9/18 14:18,510
12/9/18 14:18,521
12/9/18 14:18,519
12/9/18 14:18,504
12/9/18 14:18,502
12/9/18 14:18,499
12/9/18 14:18,502
12/9/18 14:18,511
12/9/18 14:18,517
12/9/18 14:18,509
12/9/18 14:18,515
12/9/18 14:18,510
12/9/18 14:18,508
12/9/18 14:18,507
12/9/18 14:18,505
12/9/18 14:18,507
12/9/18 14:18,509
12/9/18 14:18,507
12/9/18 14:18,509
12/9/18 14:18,506
12/9/18 14:18,506
12/9/18 14:18,507
12/9/18 14:18,505
12/9/18 14:18,504
12/9/18 14:18,503
12/9/18 14:18,505
12/9/18 14:18,505
12/9/18 14:18,507
12/9/18 14:18,507
12/9/18 14:18,506
12/9/18 14:18,505
12/9/18 14:18,508
12/9/18 14:18,507
12/9/18 14:18,506
12/9/18 14:18,507
12/9/18 14:18,509
12/9/18 14:18,508
12/9/18 14:18,507
12/9/18 14:18,508
12/9/18 14:18,509
12/9/18 14:18,509
12/9/18 14:18,509
12/9/18 14:18,509
12/9/18 14:18,510
12/9/18 14:18,510
12/9/18 14:18,509
12/9/18 14:18,509
12/9/18 14:18,510
12/9/18 14:18,510
12/9/18 14:18,510
12/9/18 14:18,509
12/9/18 14:18,508
12/9/18 14:18,511
12/9/18 14:18,510
12/9/18 14:18,509
12/9/18 14:18,509
12/9/18 14:18,509
12/9/18 14:18,510
12/9/18 14:18,508
12/9/18 14:18,509
12/9/18 14:18,509
12/9/18 14:18,510
12/9/18 14:18,509
12/9/18 14:18,509
12/9/18 14:18,508
12/9/18 14:18,509
12/9/18 14:18,508
12/9/18 14:18,507
12/9/18 14:18,508
12/9/18 14:18,510
12/9/18 14:18,507
12/9/18 14:18,506
12/9/18 14:18,508
12/9/18 14:18,508
12/9/18 14:18,508
12/9/18 14:18,509
12/9/18 14:18,509
12/9/18 14:18,509
12/9/18 14:18,507
12/9/18 14:18,509
12/9/18 14:18,507
12/9/18 14:18,509
12/9/18 14:18,507
12/9/18 14:18,507
12/9/18 14:18,510
12/9/18 14:18,509
12/9/18 14:18,508
12/9/18 14:18,509
12/9/18 14:18,508
12/9/18 14:18,509
12/9/18 14:18,507
12/9/18 14:18,506
12/9/18 14:18,507
12/9/18 14:18,507
12/9/18 14:18,506
12/9/18 14:18,507
12/9/18 14:18,507
12/9/18 14:18,508
12/9/18 14:18,507
12/9/18 14:18,506
12/9/18 14:18,507
12/9/18 14:18,508
12/9/18 14:18,508
12/9/18 14:18,508
12/9/18 14:18,509
12/9/18 14:18,510
12/9/18 14:18,508
12/9/18 14:18,506
12/9/18 14:18,508
12/9/18 14:18,507
12/9/18 14:18,527
12/9/18 14:18,519
12/9/18 14:18,504
12/9/18 14:18,505
12/9/18 14:18,497
12/9/18 14:18,499
12/9/18 14:18,511
12/9/18 14:18,517
12/9/18 14:18,512
12/9/18 14:18,515
12/9/18 14:18,514
12/9/18 14:18,509
12/9/18 14:18,505
12/9/18 14:18,509
12/9/18 14:18,506
12/9/18 14:18,505
12/9/18 14:18,507
12/9/18 14:18,506
12/9/18 14:18,506
12/9/18 14:18,507
12/9/18 14:18,506
12/9/18 14:18,508
12/9/18 14:18,506
12/9/18 14:18,506
12/9/18 14:18,506
12/9/18 14:18,506
12/9/18 14:18,507
12/9/18 14:18,506
12/9/18 14:18,504
12/9/18 14:18,507
12/9/18 14:18,507
12/9/18 14:18,505
12/9/18 14:18,506
12/9/18 14:18,506
12/9/18 14:18,509
12/9/18 14:18,508
12/9/18 14:18,508
12/9/18 14:18,508
12/9/18 14:18,508
12/9/18 14:18,509
12/9/18 14:18,507
12/9/18 14:18,509
12/9/18 14:18,508
12/9/18 14:18,509
12/9/18 14:18,509
12/9/18 14:18,510
12/9/18 14:18,510
12/9/18 14:18,511
12/9/18 14:18,510
12/9/18 14:18,513
12/9/18 14:18,510
12/9/18 14:18,510
12/9/18 14:18,509
12/9/18 14:18,509
12/9/18 14:18,509
12/9/18 14:18,508
12/9/18 14:18,509
12/9/18 14:18,510
12/9/18 14:18,510
12/9/18 14:18,509
12/9/18 14:18,508
12/9/18 14:18,508
12/9/18 14:18,509
12/9/18 14:18,509
12/9/18 14:18,510
12/9/18 14:18,508
12/9/18 14:18,508
12/9/18 14:18,506
12/9/18 14:18,507
12/9/18 14:18,507
12/9/18 14:18,508
12/9/18 14:18,509
12/9/18 14:18,507
12/9/18 14:18,504
12/9/18 14:18,508
12/9/18 14:18,509
12/9/18 14:18,510
12/9/18 14:18,508
12/9/18 14:18,508
12/9/18 14:18,508
12/9/18 14:18,508
12/9/18 14:18,508
12/9/18 14:18,507
12/9/18 14:18,508
12/9/18 14:18,508
12/9/18 14:18,508
12/9/18 14:18,507
12/9/18 14:18,507
12/9/18 14:18,508
12/9/18 14:18,507
12/9/18 14:18,508
12/9/18 14:18,508
12/9/18 14:18,509
12/9/18 14:18,508
12/9/18 14:18,508
12/9/18 14:18,507
12/9/18 14:18,507
12/9/18 14:18,508
12/9/18 14:18,508
12/9/18 14:18,507
12/9/18 14:18,508
12/9/18 14:18,507
12/9/18 14:18,506
12/9/18 14:18,508
12/9/18 14:18,507
12/9/18 14:18,507
12/9/18 14:18,509
12/9/18 14:18,510
12/9/18 14:18,515
12/9/18 14:18,517
12/9/18 14:18,506
12/9/18 14:18,501
12/9/18 14:18,501
12/9/18 14:18,504
12/9/18 14:18,513
12/9/18 14:18,518
12/9/18 14:18,507
12/9/18 14:18,513
12/9/18 14:18,512
12/9/18 14:18,509
12/9/18 14:18,504
12/9/18 14:18,506
12/9/18 14:18,506
12/9/18 14:18,504
12/9/18 14:18,505
12/9/18 14:18,503
12/9/18 14:18,506
12/9/18 14:18,506
12/9/18 14:18,507
12/9/18 14:18,507
12/9/18 14:18,509
12/9/18 14:18,508
12/9/18 14:18,509
12/9/18 14:18,507
12/9/18 14:18,507
12/9/18 14:18,507
12/9/18 14:18,506
12/9/18 14:18,506
12/9/18 14:18,508
12/9/18 14:18,508
12/9/18 14:18,509
12/9/18 14:18,508
12/9/18 14:18,508
12/9/18 14:18,507
12/9/18 14:18,509
12/9/18 14:18,509
12/9/18 14:18,509
12/9/18 14:18,509
12/9/18 14:18,509
12/9/18 14:18,510
12/9/18 14:18,508
12/9/18 14:18,510
12/9/18 14:18,509
12/9/18 14:18,508
12/9/18 14:18,507
12/9/18 14:18,509
12/9/18 14:18,509
12/9/18 14:18,509
12/9/18 14:18,508
12/9/18 14:18,507
12/9/18 14:18,508
12/9/18 14:18,509
12/9/18 14:18,510
12/9/18 14:27,508
12/9/18 14:27,507
12/9/18 14:27,509
12/9/18 14:27,507
12/9/18 14:27,506
12/9/18 14:27,507
12/9/18 14:27,507
12/9/18 14:27,507
12/9/18 14:27,508
12/9/18 14:27,509
12/9/18 14:27,507
12/9/18 14:27,510
12/9/18 14:27,509
12/9/18 14:27,509
12/9/18 14:27,509
12/9/18 14:27,509
12/9/18 14:27,509
12/9/18 14:27,508
12/9/18 14:27,509
12/9/18 14:27,510
12/9/18 14:27,509
12/9/18 14:27,507
12/9/18 14:27,507
12/9/18 14:27,507
12/9/18 14:27,508
12/9/18 14:27,507
12/9/18 14:27,511
12/9/18 14:27,510
12/9/18 14:27,509
12/9/18 14:27,509
12/9/18 14:27,509
12/9/18 14:27,509
12/9/18 14:27,509
12/9/18 14:27,506
12/9/18 14:27,508
12/9/18 14:27,506
12/9/18 14:27,509
12/9/18 14:27,509
12/9/18 14:27,509
12/9/18 14:27,508
12/9/18 14:27,507
12/9/18 14:27,508
12/9/18 14:27,507
12/9/18 14:27,509
12/9/18 14:27,508
12/9/18 14:27,510
12/9/18 14:27,509
12/9/18 14:27,506
12/9/18 14:27,507
12/9/18 14:27,507
12/9/18 14:27,507
12/9/18 14:27,508
12/9/18 14:27,509
12/9/18 14:27,508
12/9/18 14:27,507
12/9/18 14:27,507
12/9/18 14:27,507
12/9/18 14:27,507
12/9/18 14:27,505
12/9/18 14:27,506
12/9/18 14:27,507
12/9/18 14:27,508
12/9/18 14:27,510
12/9/18 14:27,509
12/9/18 14:27,510
12/9/18 14:27,508
12/9/18 14:27,509
12/9/18 14:27,508
12/9/18 14:27,509
12/9/18 14:27,509
12/9/18 14:27,508
12/9/18 14:27,509
12/9/18 14:27,509
12/9/18 14:27,510
12/9/18 14:27,506
12/9/18 14:27,523
12/9/18 14:27,518
12/9/18 14:27,503
12/9/18 14:27,506
12/9/18 14:27,500
12/9/18 14:27,505
12/9/18 14:27,508
12/9/18 14:27,516
12/9/18 14:27,512
12/9/18 14:27,510
12/9/18 14:27,510
12/9/18 14:27,510
12/9/18 14:27,511
12/9/18 14:27,504
12/9/18 14:27,508
12/9/18 14:27,509
12/9/18 14:27,510
12/9/18 14:27,505
12/9/18 14:27,506
12/9/18 14:27,505
12/9/18 14:27,505
12/9/18 14:27,506
12/9/18 14:27,505
12/9/18 14:27,505
12/9/18 14:27,503
12/9/18 14:27,503
12/9/18 14:27,505
12/9/18 14:27,503
12/9/18 14:27,506
12/9/18 14:27,507
12/9/18 14:27,509
12/9/18 14:27,508
12/9/18 14:27,508
12/9/18 14:27,507
12/9/18 14:27,506
12/9/18 14:27,508
12/9/18 14:27,509
12/9/18 14:27,507
12/9/18 14:27,510
12/9/18 14:27,508
12/9/18 14:27,509
12/9/18 14:27,509
12/9/18 14:27,510
12/9/18 14:27,509
12/9/18 14:27,509
12/9/18 14:27,509
12/9/18 14:27,510
12/9/18 14:27,509
12/9/18 14:27,510
12/9/18 14:27,507
12/9/18 14:27,509
12/9/18 14:27,509
12/9/18 14:27,509
12/9/18 14:27,511
12/9/18 14:27,509
12/9/18 14:27,509
12/9/18 14:27,511
12/9/18 14:27,511
12/9/18 14:27,509
12/9/18 14:27,508
12/9/18 14:27,511
12/9/18 14:27,508
12/9/18 14:27,511
12/9/18 14:27,509
12/9/18 14:27,508
12/9/18 14:27,510
12/9/18 14:27,508
12/9/18 14:27,507
12/9/18 14:27,508
12/9/18 14:27,508
12/9/18 14:27,507
12/9/18 14:27,508
12/9/18 14:27,507
12/9/18 14:27,507
12/9/18 14:27,508
12/9/18 14:27,508
12/9/18 14:27,506
12/9/18 14:27,509
12/9/18 14:27,508
12/9/18 14:27,510
12/9/18 14:27,506
12/9/18 14:27,508
12/9/18 14:27,507
12/9/18 14:27,509
12/9/18 14:27,506
12/9/18 14:27,510
12/9/18 14:27,507
12/9/18 14:27,507
12/9/18 14:27,508
12/9/18 14:27,506
12/9/18 14:27,508
12/9/18 14:27,506
12/9/18 14:27,509
12/9/18 14:27,508
12/9/18 14:27,511
12/9/18 14:27,509
12/9/18 14:27,507
12/9/18 14:27,509
12/9/18 14:27,508
12/9/18 14:27,505
12/9/18 14:27,509
12/9/18 14:27,508
12/9/18 14:27,508
12/9/18 14:27,508
12/9/18 14:27,506
12/9/18 14:27,509
12/9/18 14:27,509
12/9/18 14:27,508
12/9/18 14:27,508
12/9/18 14:27,528
12/9/18 14:27,515
12/9/18 14:27,503
12/9/18 14:27,510
12/9/18 14:27,501
12/9/18 14:27,503
12/9/18 14:27,510
12/9/18 14:27,511
12/9/18 14:27,517
12/9/18 14:27,506
12/9/18 14:27,509
12/9/18 14:27,511
12/9/18 14:27,509
12/9/18 14:27,508
12/9/18 14:27,509
12/9/18 14:27,506
12/9/18 14:27,505
12/9/18 14:27,503
12/9/18 14:27,503
12/9/18 14:27,506
12/9/18 14:27,505
12/9/18 14:27,505
12/9/18 14:27,505
12/9/18 14:27,508
12/9/18 14:27,508
12/9/18 14:27,507
12/9/18 14:27,507
12/9/18 14:27,505
12/9/18 14:27,507
12/9/18 14:27,507
12/9/18 14:27,507
12/9/18 14:27,509
12/9/18 14:27,509
12/9/18 14:27,509
12/9/18 14:27,510
12/9/18 14:27,509
12/9/18 14:27,509
12/9/18 14:27,507
12/9/18 14:27,509
12/9/18 14:27,509
12/9/18 14:27,509
12/9/18 14:27,509
12/9/18 14:27,508
12/9/18 14:27,509
12/9/18 14:27,508
12/9/18 14:27,509
12/9/18 14:27,511
12/9/18 14:27,509
12/9/18 14:27,509
12/9/18 14:27,509
12/9/18 14:27,510
12/9/18 14:27,511
12/9/18 14:27,509
12/9/18 14:27,510
12/9/18 14:27,509
12/9/18 14:27,508
12/9/18 14:27,509
12/9/18 14:27,507
12/9/18 14:27,509
12/9/18 14:27,510
12/9/18 14:27,509
12/9/18 14:27,509
12/9/18 14:27,506
12/9/18 14:27,509
12/9/18 14:27,508
12/9/18 14:27,509
12/9/18 14:27,509
12/9/18 14:27,507
12/9/18 14:27,509
12/9/18 14:27,508
12/9/18 14:27,509
12/9/18 14:27,506
12/9/18 14:27,507
12/9/18 14:27,507
12/9/18 14:27,507
12/9/18 14:27,508
12/9/18 14:27,508
12/9/18 14:27,509
12/9/18 14:27,509
12/9/18 14:27,508
12/9/18 14:27,507
12/9/18 14:27,508
12/9/18 14:27,507
12/9/18 14:27,510
12/9/18 14:27,508
12/9/18 14:27,506
12/9/18 14:27,505
12/9/18 14:27,508
12/9/18 14:27,507
12/9/18 14:27,509
12/9/18 14:27,509
12/9/18 14:27,508
12/9/18 14:27,508
12/9/18 14:27,508
12/9/18 14:27,507
12/9/18 14:27,507
12/9/18 14:27,510
12/9/18 14:27,507
12/9/18 14:27,506
12/9/18 14:27,507
12/9/18 14:27,509
12/9/18 14:27,508
12/9/18 14:27,508
12/9/18 14:27,508
12/9/18 14:27,508
12/9/18 14:27,509
12/9/18 14:27,520
12/9/18 14:27,509
12/9/18 14:27,507
12/9/18 14:27,511
12/9/18 14:27,507
12/9/18 14:27,502
12/9/18 14:27,509
12/9/18 14:27,519
12/9/18 14:27,514
12/9/18 14:27,512
12/9/18 14:27,509
12/9/18 14:27,507
12/9/18 14:27,507
12/9/18 14:27,507
12/9/18 14:27,508
12/9/18 14:27,506
12/9/18 14:27,504
12/9/18 14:27,506
12/9/18 14:27,509
12/9/18 14:27,507
12/9/18 14:27,505
12/9/18 14:27,509
12/9/18 14:27,505
12/9/18 14:27,504
12/9/18 14:27,503
12/9/18 14:27,505
12/9/18 14:27,505
12/9/18 14:27,506
12/9/18 14:27,504
12/9/18 14:27,508
12/9/18 14:27,506
12/9/18 14:27,506
12/9/18 14:27,508
12/9/18 14:27,507
12/9/18 14:27,510
12/9/18 14:27,508
12/9/18 14:27,508
12/9/18 14:27,507
12/9/18 14:27,509
12/9/18 14:27,509
12/9/18 14:27,509
12/9/18 14:27,508
12/9/18 14:27,510
12/9/18 14:27,511
12/9/18 14:27,513
12/9/18 14:27,511
12/9/18 14:27,510
12/9/18 14:27,509
12/9/18 14:27,510
12/9/18 14:27,508
12/9/18 14:27,506
12/9/18 14:27,507
12/9/18 14:27,508
12/9/18 14:27,510
12/9/18 14:27,509
12/9/18 14:27,511
12/9/18 14:27,510
12/9/18 14:27,509
12/9/18 14:27,511
12/9/18 14:27,508
12/9/18 14:27,509
12/9/18 14:27,513
12/9/18 14:27,510
12/9/18 14:27,511
12/9/18 14:27,509
12/9/18 14:27,507
12/9/18 14:27,508
12/9/18 14:27,506
12/9/18 14:27,510
12/9/18 14:27,505
12/9/18 14:27,507
12/9/18 14:27,507
12/9/18 14:27,506
12/9/18 14:27,505
12/9/18 14:27,509
12/9/18 14:27,509
12/9/18 14:27,508
12/9/18 14:27,507
12/9/18 14:27,509
12/9/18 14:27,507
12/9/18 14:27,507
12/9/18 14:27,507
12/9/18 14:27,507
12/9/18 14:27,512
12/9/18 14:27,511
12/9/18 14:27,510
12/9/18 14:27,507
12/9/18 14:27,507
12/9/18 14:27,507
12/9/18 14:27,507
12/9/18 14:27,507
12/9/18 14:27,507
12/9/18 14:27,507
12/9/18 14:27,509
12/9/18 14:27,508
12/9/18 14:27,508
12/9/18 14:27,507
12/9/18 14:27,507
12/9/18 14:27,511
12/9/18 14:27,508
12/9/18 14:27,507
12/9/18 14:27,509
12/9/18 14:27,506
12/9/18 14:27,511
12/9/18 14:27,508
12/9/18 14:27,511
12/9/18 14:27,513
12/9/18 14:27,507
12/9/18 14:27,507
12/9/18 14:27,505
12/9/18 14:27,506
12/9/18 14:27,508
12/9/18 14:27,506
12/9/18 14:27,527
12/9/18 14:27,519
12/9/18 14:27,509
12/9/18 14:27,506
12/9/18 14:27,501
12/9/18 14:27,497
12/9/18 14:27,512
12/9/18 14:27,518
12/9/18 14:27,517
12/9/18 14:27,510
12/9/18 14:27,507
12/9/18 14:27,507
12/9/18 14:27,503
12/9/18 14:27,501
12/9/18 14:27,499
12/9/18 14:27,503
12/9/18 14:27,508
12/9/18 14:27,508
12/9/18 14:27,509
12/9/18 14:27,510
12/9/18 14:27,511
12/9/18 14:27,511
12/9/18 14:27,504
12/9/18 14:27,505
12/9/18 14:27,507
12/9/18 14:27,508
12/9/18 14:27,503
12/9/18 14:27,499
12/9/18 14:27,503
12/9/18 14:27,503
12/9/18 14:27,503
12/9/18 14:27,505
12/9/18 14:27,507
12/9/18 14:27,509
12/9/18 14:27,509
12/9/18 14:27,510
12/9/18 14:27,508
12/9/18 14:27,511
12/9/18 14:27,516
12/9/18 14:27,509
12/9/18 14:27,510
12/9/18 14:27,508
12/9/18 14:27,509
12/9/18 14:27,507
12/9/18 14:27,509
12/9/18 14:27,511
12/9/18 14:27,510
12/9/18 14:27,511
12/9/18 14:27,510
12/9/18 14:27,510
12/9/18 14:27,510
12/9/18 14:27,508
12/9/18 14:27,511
12/9/18 14:27,508
12/9/18 14:27,508
12/9/18 14:27,510
12/9/18 14:27,508
12/9/18 14:27,509
12/9/18 14:27,508
12/9/18 14:27,509
12/9/18 14:27,510
12/9/18 14:27,509
12/9/18 14:27,509
12/9/18 14:27,509
12/9/18 14:27,510
12/9/18 14:27,509
12/9/18 14:27,509
12/9/18 14:27,508
12/9/18 14:27,507
12/9/18 14:27,507
12/9/18 14:27,508
12/9/18 14:27,508
12/9/18 14:27,508
12/9/18 14:27,508
12/9/18 14:27,508
12/9/18 14:27,509
12/9/18 14:27,507
12/9/18 14:27,509
12/9/18 14:27,508
12/9/18 14:27,507
12/9/18 14:27,508
12/9/18 14:27,509
12/9/18 14:27,509
12/9/18 14:27,508
12/9/18 14:27,508
12/9/18 14:27,507
12/9/18 14:27,507
12/9/18 14:27,509
12/9/18 14:27,508
12/9/18 14:27,507
12/9/18 14:27,507
12/9/18 14:27,509
12/9/18 14:27,508
12/9/18 14:27,507
12/9/18 14:27,507
12/9/18 14:27,507
12/9/18 14:27,507
12/9/18 14:27,509
12/9/18 14:27,507
12/9/18 14:27,510
12/9/18 14:27,507
12/9/18 14:27,510
12/9/18 14:27,510
12/9/18 14:27,507
12/9/18 14:27,508
12/9/18 14:27,509
12/9/18 14:27,511
12/9/18 14:27,514
12/9/18 14:27,513
12/9/18 14:27,504
12/9/18 14:27,505
12/9/18 14:27,505
12/9/18 14:27,506
12/9/18 14:27,514
12/9/18 14:27,516
12/9/18 14:27,508
12/9/18 14:27,516
12/9/18 14:27,512
12/9/18 14:27,506
12/9/18 14:27,509
12/9/18 14:27,505
12/9/18 14:27,503
12/9/18 14:27,504
12/9/18 14:27,505
12/9/18 14:27,506
12/9/18 14:27,507
12/9/18 14:27,509
12/9/18 14:27,506
12/9/18 14:27,505
12/9/18 14:27,508
12/9/18 14:27,506
12/9/18 14:27,506
12/9/18 14:27,505
12/9/18 14:27,507
12/9/18 14:27,507
12/9/18 14:27,505
12/9/18 14:27,506
12/9/18 14:27,506
12/9/18 14:27,508
12/9/18 14:27,508
12/9/18 14:27,509
12/9/18 14:27,508
12/9/18 14:27,509
12/9/18 14:27,507
12/9/18 14:27,507
12/9/18 14:27,508
12/9/18 14:27,508
12/9/18 14:27,508
12/9/18 14:27,509
12/9/18 14:27,510
12/9/18 14:27,508
12/9/18 14:27,511
12/9/18 14:27,510
12/9/18 14:27,508
12/9/18 14:27,510
12/9/18 14:27,509
12/9/18 14:27,510
12/9/18 14:27,510
12/9/18 14:27,509
12/9/18 14:27,507
12/9/18 14:27,508
12/9/18 14:27,510
12/9/18 14:27,507
12/9/18 14:27,509
12/9/18 14:27,511
12/9/18 14:27,508
12/9/18 14:27,509
12/9/18 14:27,510
12/9/18 14:27,509
12/9/18 14:27,509
12/9/18 14:27,507
12/9/18 14:27,510
12/9/18 14:27,510
12/9/18 14:27,509
12/9/18 14:27,509
12/9/18 14:27,507
12/9/18 14:27,506
12/9/18 14:27,507
12/9/18 14:27,507
12/9/18 14:27,509
12/9/18 14:27,507
12/9/18 14:27,509
12/9/18 14:27,507
12/9/18 14:27,508
12/9/18 14:27,507
12/9/18 14:27,507
12/9/18 14:27,509
12/9/18 14:27,507
12/9/18 14:27,508
12/9/18 14:27,508
12/9/18 14:27,508
12/9/18 14:27,510
12/9/18 14:27,508
12/9/18 14:27,507
12/9/18 14:27,508
12/9/18 14:27,507
12/9/18 14:27,507
12/9/18 14:36,508
12/9/18 14:36,508
12/9/18 14:36,510
12/9/18 14:36,508
12/9/18 14:36,508
12/9/18 14:36,508
12/9/18 14:36,510
12/9/18 14:36,507
12/9/18 14:36,508
12/9/18 14:36,510
12/9/18 14:36,507
12/9/18 14:36,508
12/9/18 14:36,509
12/9/18 14:36,507
12/9/18 14:36,508
12/9/18 14:36,507
12/9/18 14:36,509
12/9/18 14:36,507
12/9/18 14:36,506
12/9/18 14:36,510
12/9/18 14:36,508
12/9/18 14:36,509
12/9/18 14:36,508
12/9/18 14:36,507
12/9/18 14:36,508
12/9/18 14:36,507
12/9/18 14:36,508
12/9/18 14:36,509
12/9/18 14:36,509
12/9/18 14:36,509
12/9/18 14:36,508
12/9/18 14:36,507
12/9/18 14:36,508
12/9/18 14:36,505
12/9/18 14:36,508
12/9/18 14:36,507
12/9/18 14:36,508
12/9/18 14:36,509
12/9/18 14:36,506
12/9/18 14:36,508
12/9/18 14:36,505
12/9/18 14:36,506
12/9/18 14:36,508
12/9/18 14:36,509
12/9/18 14:36,509
12/9/18 14:36,508
12/9/18 14:36,508
12/9/18 14:36,506
12/9/18 14:36,509
12/9/18 14:36,509
12/9/18 14:36,507
12/9/18 14:36,507
12/9/18 14:36,506
12/9/18 14:36,508
12/9/18 14:36,511
12/9/18 14:36,508
12/9/18 14:36,509
12/9/18 14:36,507
12/9/18 14:36,507
12/9/18 14:36,509
12/9/18 14:36,508
12/9/18 14:36,511
12/9/18 14:36,516
12/9/18 14:36,514
12/9/18 14:36,507
12/9/18 14:36,500
12/9/18 14:36,499
12/9/18 14:36,507
12/9/18 14:36,514
12/9/18 14:36,516
12/9/18 14:36,509
12/9/18 14:36,507
12/9/18 14:36,511
12/9/18 14:36,510
12/9/18 14:36,507
12/9/18 14:36,503
12/9/18 14:36,505
12/9/18 14:36,503
12/9/18 14:36,507
12/9/18 14:36,507
12/9/18 14:36,506
12/9/18 14:36,507
12/9/18 14:36,506
12/9/18 14:36,509
12/9/18 14:36,506
12/9/18 14:36,507
12/9/18 14:36,508
12/9/18 14:36,505
12/9/18 14:36,508
12/9/18 14:36,508
12/9/18 14:36,508
12/9/18 14:36,507
12/9/18 14:36,507
12/9/18 14:36,509
12/9/18 14:36,507
12/9/18 14:36,508
12/9/18 14:36,508
12/9/18 14:36,509
12/9/18 14:36,509
12/9/18 14:36,509
12/9/18 14:36,509
12/9/18 14:36,511
12/9/18 14:36,508
12/9/18 14:36,509
12/9/18 14:36,508
12/9/18 14:36,508
12/9/18 14:36,510
12/9/18 14:36,508
12/9/18 14:36,510
12/9/18 14:36,506
12/9/18 14:36,506
12/9/18 14:36,506
12/9/18 14:36,507
12/9/18 14:36,510
12/9/18 14:36,511
12/9/18 14:36,509
12/9/18 14:36,511
12/9/18 14:36,510
12/9/18 14:36,511
12/9/18 14:36,509
12/9/18 14:36,508
12/9/18 14:36,510
12/9/18 14:36,507
12/9/18 14:36,511
12/9/18 14:36,509
12/9/18 14:36,508
12/9/18 14:36,508
12/9/18 14:36,508
12/9/18 14:36,510
12/9/18 14:36,507
12/9/18 14:36,508
12/9/18 14:36,508
12/9/18 14:36,507
12/9/18 14:36,509
12/9/18 14:36,506
12/9/18 14:36,508
12/9/18 14:36,508
12/9/18 14:36,506
12/9/18 14:36,509
12/9/18 14:36,508
12/9/18 14:36,508
12/9/18 14:36,509
12/9/18 14:36,510
12/9/18 14:36,509
12/9/18 14:36,506
12/9/18 14:36,508
12/9/18 14:36,510
12/9/18 14:36,506
12/9/18 14:36,509
12/9/18 14:36,506
12/9/18 14:36,507
12/9/18 14:36,508
12/9/18 14:36,510
12/9/18 14:36,509
12/9/18 14:36,507
12/9/18 14:36,508
12/9/18 14:36,508
12/9/18 14:36,508
12/9/18 14:36,508
12/9/18 14:36,507
12/9/18 14:36,508
12/9/18 14:36,509
12/9/18 14:36,509
12/9/18 14:36,510
12/9/18 14:36,508
12/9/18 14:36,510
12/9/18 14:36,507
12/9/18 14:36,509
12/9/18 14:36,508
12/9/18 14:36,507
12/9/18 14:36,510
12/9/18 14:36,507
12/9/18 14:36,509
12/9/18 14:36,514
12/9/18 14:36,510
12/9/18 14:36,515
12/9/18 14:36,505
12/9/18 14:36,504
12/9/18 14:36,502
12/9/18 14:36,505
12/9/18 14:36,514
12/9/18 14:36,512
12/9/18 14:36,508
12/9/18 14:36,507
12/9/18 14:36,507
12/9/18 14:36,510
12/9/18 14:36,506
12/9/18 14:36,511
12/9/18 14:36,507
12/9/18 14:36,503
12/9/18 14:36,505
12/9/18 14:36,502
12/9/18 14:36,502
12/9/18 14:36,503
12/9/18 14:36,506
12/9/18 14:36,508
12/9/18 14:36,506
12/9/18 14:36,509
12/9/18 14:36,508
12/9/18 14:36,507
12/9/18 14:36,509
12/9/18 14:36,508
12/9/18 14:36,508
12/9/18 14:36,509
12/9/18 14:36,507
12/9/18 14:36,508
12/9/18 14:36,509
12/9/18 14:36,509
12/9/18 14:36,509
12/9/18 14:36,509
12/9/18 14:36,509
12/9/18 14:36,507
12/9/18 14:36,510
12/9/18 14:36,508
12/9/18 14:36,508
12/9/18 14:36,510
12/9/18 14:36,509
12/9/18 14:36,510
12/9/18 14:36,507
12/9/18 14:36,510
12/9/18 14:36,510
12/9/18 14:36,508
12/9/18 14:36,509
12/9/18 14:36,510
12/9/18 14:36,507
12/9/18 14:36,509
12/9/18 14:36,507
12/9/18 14:36,510
12/9/18 14:36,507
12/9/18 14:36,507
12/9/18 14:36,511
12/9/18 14:36,507
12/9/18 14:36,508
12/9/18 14:36,509
12/9/18 14:36,509
12/9/18 14:36,509
12/9/18 14:36,510
12/9/18 14:36,511
12/9/18 14:36,508
12/9/18 14:36,508
12/9/18 14:36,509
12/9/18 14:36,508
12/9/18 14:36,509
12/9/18 14:36,507
12/9/18 14:36,508
12/9/18 14:36,508
12/9/18 14:36,508
12/9/18 14:36,509
12/9/18 14:36,506
12/9/18 14:36,508
12/9/18 14:36,509
12/9/18 14:36,509
12/9/18 14:36,509
12/9/18 14:36,506
12/9/18 14:36,509
12/9/18 14:36,506
12/9/18 14:36,507
12/9/18 14:36,508
12/9/18 14:36,505
12/9/18 14:36,507
12/9/18 14:36,509
12/9/18 14:36,508
12/9/18 14:36,509
12/9/18 14:36,507
12/9/18 14:36,509
12/9/18 14:36,507
12/9/18 14:36,507
12/9/18 14:36,509
12/9/18 14:36,507
12/9/18 14:36,508
12/9/18 14:36,508
12/9/18 14:36,506
12/9/18 14:36,507
12/9/18 14:36,506
12/9/18 14:36,507
12/9/18 14:36,508
12/9/18 14:36,507
12/9/18 14:36,510
12/9/18 14:36,508
12/9/18 14:36,509
12/9/18 14:36,504
12/9/18 14:36,507
12/9/18 14:36,510
12/9/18 14:36,507
12/9/18 14:36,510
12/9/18 14:36,546
12/9/18 14:36,494
12/9/18 14:36,496
12/9/18 14:36,497
12/9/18 14:36,508
12/9/18 14:36,510
12/9/18 14:36,520
12/9/18 14:36,514
12/9/18 14:36,509
12/9/18 14:36,514
12/9/18 14:36,507
12/9/18 14:36,506
12/9/18 14:36,508
12/9/18 14:36,510
12/9/18 14:36,511
12/9/18 14:36,508
12/9/18 14:36,504
12/9/18 14:36,502
12/9/18 14:36,499
12/9/18 14:36,501
12/9/18 14:36,502
12/9/18 14:36,504
12/9/18 14:36,504
12/9/18 14:36,505
12/9/18 14:36,506
12/9/18 14:36,506
12/9/18 14:36,507
12/9/18 14:36,508
12/9/18 14:36,508
12/9/18 14:36,509
12/9/18 14:36,508
12/9/18 14:36,508
12/9/18 14:36,509
12/9/18 14:36,510
12/9/18 14:36,511
12/9/18 14:36,507
12/9/18 14:36,509
12/9/18 14:36,508
12/9/18 14:36,509
12/9/18 14:36,511
12/9/18 14:36,508
12/9/18 14:36,511
12/9/18 14:36,508
12/9/18 14:36,509
12/9/18 14:36,509
12/9/18 14:36,507
12/9/18 14:36,510
12/9/18 14:36,509
12/9/18 14:36,509
12/9/18 14:36,510
12/9/18 14:36,510
12/9/18 14:36,510
12/9/18 14:36,509
12/9/18 14:36,508
12/9/18 14:36,510
12/9/18 14:36,510
12/9/18 14:36,508
12/9/18 14:36,509
12/9/18 14:36,508
12/9/18 14:36,508
12/9/18 14:36,507
12/9/18 14:36,508
12/9/18 14:36,504
12/9/18 14:36,506
12/9/18 14:36,510
12/9/18 14:36,509
12/9/18 14:36,510
12/9/18 14:36,509
12/9/18 14:36,509
12/9/18 14:36,510
12/9/18 14:36,508
12/9/18 14:36,509
12/9/18 14:36,509
12/9/18 14:36,508
12/9/18 14:36,508
12/9/18 14:36,507
12/9/18 14:36,509
12/9/18 14:36,508
12/9/18 14:36,509
12/9/18 14:36,508
12/9/18 14:36,507
12/9/18 14:36,509
12/9/18 14:36,505
12/9/18 14:36,508
12/9/18 14:36,509
12/9/18 14:36,508
12/9/18 14:36,508
12/9/18 14:36,507
12/9/18 14:36,508
12/9/18 14:36,508
12/9/18 14:36,507
12/9/18 14:36,508
12/9/18 14:36,506
12/9/18 14:36,509
12/9/18 14:36,509
12/9/18 14:36,510
12/9/18 14:36,509
12/9/18 14:36,506
12/9/18 14:36,507
12/9/18 14:36,507
12/9/18 14:36,508
12/9/18 14:36,509
12/9/18 14:36,507
12/9/18 14:36,509
12/9/18 14:36,507
12/9/18 14:36,507
12/9/18 14:36,509
12/9/18 14:36,508
12/9/18 14:36,510
12/9/18 14:36,506
12/9/18 14:36,508
12/9/18 14:36,510
12/9/18 14:36,507
12/9/18 14:36,520
12/9/18 14:36,516
12/9/18 14:36,509
12/9/18 14:36,506
12/9/18 14:36,498
12/9/18 14:36,503
12/9/18 14:36,507
12/9/18 14:36,516
12/9/18 14:36,514
12/9/18 14:36,507
12/9/18 14:36,509
12/9/18 14:36,510
12/9/18 14:36,508
12/9/18 14:36,505
12/9/18 14:36,505
12/9/18 14:36,508
12/9/18 14:36,507
12/9/18 14:36,507
12/9/18 14:36,507
12/9/18 14:36,506
12/9/18 14:36,507
12/9/18 14:36,504
12/9/18 14:36,508
12/9/18 14:36,506
12/9/18 14:36,504
12/9/18 14:36,507
12/9/18 14:36,504
12/9/18 14:36,507
12/9/18 14:36,506
12/9/18 14:36,506
12/9/18 14:36,507
12/9/18 14:36,507
12/9/18 14:36,509
12/9/18 14:36,508
12/9/18 14:36,507
12/9/18 14:36,510
12/9/18 14:36,508
12/9/18 14:36,509
12/9/18 14:36,508
12/9/18 14:36,507
12/9/18 14:36,509
12/9/18 14:36,508
12/9/18 14:36,511
12/9/18 14:36,510
12/9/18 14:36,509
12/9/18 14:36,508
12/9/18 14:36,508
12/9/18 14:36,509
12/9/18 14:36,510
12/9/18 14:36,508
12/9/18 14:36,510
12/9/18 14:36,509
12/9/18 14:36,511
12/9/18 14:36,510
12/9/18 14:36,511
12/9/18 14:36,511
12/9/18 14:36,509
12/9/18 14:36,510
12/9/18 14:36,508
12/9/18 14:36,510
12/9/18 14:36,510
12/9/18 14:36,510
12/9/18 14:36,511
12/9/18 14:36,509
12/9/18 14:36,509
12/9/18 14:36,508
12/9/18 14:36,509
12/9/18 14:36,510
12/9/18 14:36,506
12/9/18 14:36,508
12/9/18 14:36,508
12/9/18 14:36,506
12/9/18 14:36,508
12/9/18 14:36,509
12/9/18 14:36,508
12/9/18 14:36,507
12/9/18 14:36,507
12/9/18 14:36,507
12/9/18 14:36,506
12/9/18 14:36,507
12/9/18 14:36,509
12/9/18 14:36,508
12/9/18 14:36,506
12/9/18 14:36,506
12/9/18 14:36,508
12/9/18 14:36,508
12/9/18 14:36,509
12/9/18 14:36,508
12/9/18 14:36,506
12/9/18 14:36,506
12/9/18 14:36,505
12/9/18 14:36,508
12/9/18 14:36,509
12/9/18 14:36,508
12/9/18 14:36,509
12/9/18 14:36,508
12/9/18 14:36,508
12/9/18 14:36,509
12/9/18 14:36,508
12/9/18 14:36,509
12/9/18 14:36,507
12/9/18 14:36,508
12/9/18 14:36,509
12/9/18 14:36,508
12/9/18 14:36,509
12/9/18 14:36,508
12/9/18 14:36,507
12/9/18 14:36,508
12/9/18 14:36,508
12/9/18 14:36,508
12/9/18 14:36,509
12/9/18 14:36,508
12/9/18 14:36,508
12/9/18 14:36,509
12/9/18 14:36,527
12/9/18 14:36,516
12/9/18 14:36,503
12/9/18 14:36,508
12/9/18 14:36,497
12/9/18 14:36,505
12/9/18 14:36,511
12/9/18 14:36,513
12/9/18 14:36,514
12/9/18 14:36,506
12/9/18 14:36,508
12/9/18 14:36,514
12/9/18 14:36,515
12/9/18 14:36,506
12/9/18 14:36,498
12/9/18 14:36,504
12/9/18 14:36,502
12/9/18 14:36,501
12/9/18 14:36,501
12/9/18 14:36,503
12/9/18 14:36,505
12/9/18 14:36,505
12/9/18 14:36,506
12/9/18 14:36,507
12/9/18 14:36,508
12/9/18 14:36,511
12/9/18 14:36,507
12/9/18 14:36,509
12/9/18 14:36,509
12/9/18 14:36,508
12/9/18 14:36,510
12/9/18 14:36,507
12/9/18 14:36,509
12/9/18 14:36,507
12/9/18 14:36,509
12/9/18 14:36,509
12/9/18 14:36,508
12/9/18 14:36,510
12/9/18 14:36,508
12/9/18 14:36,507
12/9/18 14:36,510
12/9/18 14:36,508
12/9/18 14:36,509
12/9/18 14:36,508
12/9/18 14:36,509
12/9/18 14:36,507
12/9/18 14:36,508
12/9/18 14:36,510
12/9/18 14:36,510
12/9/18 14:36,510
12/9/18 14:36,509
12/9/18 14:36,510
12/9/18 14:36,509
12/9/18 14:36,510
12/9/18 14:36,509
12/9/18 14:36,509
12/9/18 14:36,509
12/9/18 14:36,510
12/9/18 14:36,509
12/9/18 14:36,509
12/9/18 14:36,509
12/9/18 14:36,508
12/9/18 14:36,510
12/9/18 14:36,507
12/9/18 14:36,508
12/9/18 14:36,508
12/9/18 14:36,508
12/9/18 14:36,509
12/9/18 14:36,506
12/9/18 14:36,510
12/9/18 14:36,508
12/9/18 14:36,506
12/9/18 14:36,508
12/9/18 14:36,505
12/9/18 14:36,509
12/9/18 14:36,508
12/9/18 14:36,508
12/9/18 14:36,507
12/9/18 14:36,506
12/9/18 14:36,509
12/9/18 14:36,507
12/9/18 14:36,508
12/9/18 14:36,512
12/9/18 14:36,508
12/9/18 14:36,510
12/9/18 14:36,507
12/9/18 14:36,507
12/9/18 14:36,508
12/9/18 14:45,502
12/9/18 14:45,502
12/9/18 14:45,499
12/9/18 14:45,504
12/9/18 14:45,513
12/9/18 14:45,514
12/9/18 14:45,508
12/9/18 14:45,513
12/9/18 14:45,506
12/9/18 14:45,504
12/9/18 14:45,504
12/9/18 14:45,510
12/9/18 14:45,509
12/9/18 14:45,506
12/9/18 14:45,505
12/9/18 14:45,504
12/9/18 14:45,504
12/9/18 14:45,506
12/9/18 14:45,505
12/9/18 14:45,504
12/9/18 14:45,506
12/9/18 14:45,505
12/9/18 14:45,505
12/9/18 14:45,507
12/9/18 14:45,506
12/9/18 14:45,506
12/9/18 14:45,508
12/9/18 14:45,508
12/9/18 14:45,508
12/9/18 14:45,507
12/9/18 14:45,506
12/9/18 14:45,509
12/9/18 14:45,509
12/9/18 14:45,509
12/9/18 14:45,509
12/9/18 14:45,510
12/9/18 14:45,507
12/9/18 14:45,509
12/9/18 14:45,510
12/9/18 14:45,510
12/9/18 14:45,510
12/9/18 14:45,509
12/9/18 14:45,508
12/9/18 14:45,509
12/9/18 14:45,510
12/9/18 14:45,509
12/9/18 14:45,510
12/9/18 14:45,509
12/9/18 14:45,509
12/9/18 14:45,509
12/9/18 14:45,510
12/9/18 14:45,510
12/9/18 14:45,509
12/9/18 14:45,509
12/9/18 14:45,510
12/9/18 14:45,510
12/9/18 14:45,509
12/9/18 14:45,509
12/9/18 14:45,509
12/9/18 14:45,511
12/9/18 14:45,509
12/9/18 14:45,507
12/9/18 14:45,508
12/9/18 14:45,509
12/9/18 14:45,507
12/9/18 14:45,507
12/9/18 14:45,509
12/9/18 14:45,509
12/9/18 14:45,509
12/9/18 14:45,509
12/9/18 14:45,509
12/9/18 14:45,507
12/9/18 14:45,506
12/9/18 14:45,507
12/9/18 14:45,508
12/9/18 14:45,508
12/9/18 14:45,509
12/9/18 14:45,509
12/9/18 14:45,508
12/9/18 14:45,508
12/9/18 14:45,509
12/9/18 14:45,508
12/9/18 14:45,510
12/9/18 14:45,508
12/9/18 14:45,507
12/9/18 14:45,506
12/9/18 14:45,507
12/9/18 14:45,507
12/9/18 14:45,506
12/9/18 14:45,509
12/9/18 14:45,508
12/9/18 14:45,508
12/9/18 14:45,508
12/9/18 14:45,506
12/9/18 14:45,508
12/9/18 14:45,507
12/9/18 14:45,508
12/9/18 14:45,508
12/9/18 14:45,507
12/9/18 14:45,509
12/9/18 14:45,508
12/9/18 14:45,508
12/9/18 14:45,508
12/9/18 14:45,507
12/9/18 14:45,508
12/9/18 14:45,508
12/9/18 14:45,509
12/9/18 14:45,520
12/9/18 14:45,513
12/9/18 14:45,502
12/9/18 14:45,506
12/9/18 14:45,506
12/9/18 14:45,504
12/9/18 14:45,513
12/9/18 14:45,514
12/9/18 14:45,509
12/9/18 14:45,511
12/9/18 14:45,510
12/9/18 14:45,507
12/9/18 14:45,508
12/9/18 14:45,511
12/9/18 14:45,505
12/9/18 14:45,503
12/9/18 14:45,508
12/9/18 14:45,510
12/9/18 14:45,506
12/9/18 14:45,506
12/9/18 14:45,503
12/9/18 14:45,506
12/9/18 14:45,505
12/9/18 14:45,503
12/9/18 14:45,504
12/9/18 14:45,506
12/9/18 14:45,506
12/9/18 14:45,507
12/9/18 14:45,507
12/9/18 14:45,510
12/9/18 14:45,509
12/9/18 14:45,509
12/9/18 14:45,508
12/9/18 14:45,508
12/9/18 14:45,509
12/9/18 14:45,509
12/9/18 14:45,509
12/9/18 14:45,509
12/9/18 14:45,507
12/9/18 14:45,509
12/9/18 14:45,509
12/9/18 14:45,509
12/9/18 14:45,510
12/9/18 14:45,509
12/9/18 14:45,507
12/9/18 14:45,509
12/9/18 14:45,512
12/9/18 14:45,510
12/9/18 14:45,510
12/9/18 14:45,509
12/9/18 14:45,511
12/9/18 14:45,509
12/9/18 14:45,508
12/9/18 14:45,508
12/9/18 14:45,510
12/9/18 14:45,509
12/9/18 14:45,509
12/9/18 14:45,508
12/9/18 14:45,510
12/9/18 14:45,508
12/9/18 14:45,509
12/9/18 14:45,509
12/9/18 14:45,510
12/9/18 14:45,509
12/9/18 14:45,509
12/9/18 14:45,509
12/9/18 14:45,507
12/9/18 14:45,509
12/9/18 14:45,510
12/9/18 14:45,508
12/9/18 14:45,508
12/9/18 14:45,507
12/9/18 14:45,508
12/9/18 14:45,508
12/9/18 14:45,507
12/9/18 14:45,507
12/9/18 14:45,508
12/9/18 14:45,508
12/9/18 14:45,508
12/9/18 14:45,508
12/9/18 14:45,508
12/9/18 14:45,508
12/9/18 14:45,509
12/9/18 14:45,507
12/9/18 14:45,507
12/9/18 14:45,506
12/9/18 14:45,509
12/9/18 14:45,507
12/9/18 14:45,508
12/9/18 14:45,510
12/9/18 14:45,507
12/9/18 14:45,508
12/9/18 14:45,507
12/9/18 14:45,508
12/9/18 14:45,508
12/9/18 14:45,507
12/9/18 14:45,508
12/9/18 14:45,507
12/9/18 14:45,509
12/9/18 14:45,507
12/9/18 14:45,508
12/9/18 14:45,507
12/9/18 14:45,508
12/9/18 14:45,507
12/9/18 14:45,506
12/9/18 14:45,505
12/9/18 14:45,509
12/9/18 14:45,508
12/9/18 14:45,508
12/9/18 14:45,509
12/9/18 14:45,510
12/9/18 14:45,531
12/9/18 14:45,504
12/9/18 14:45,499
12/9/18 14:45,508
12/9/18 14:45,507
12/9/18 14:45,506
12/9/18 14:45,516
12/9/18 14:45,513
12/9/18 14:45,508
12/9/18 14:45,514
12/9/18 14:45,505
12/9/18 14:45,512
12/9/18 14:45,506
12/9/18 14:45,509
12/9/18 14:45,510
12/9/18 14:45,505
12/9/18 14:45,503
12/9/18 14:45,505
12/9/18 14:45,505
12/9/18 14:45,503
12/9/18 14:45,505
12/9/18 14:45,505
12/9/18 14:45,505
12/9/18 14:45,505
12/9/18 14:45,506
12/9/18 14:45,507
12/9/18 14:45,507
12/9/18 14:45,507
12/9/18 14:45,507
12/9/18 14:45,508
12/9/18 14:45,509
12/9/18 14:45,507
12/9/18 14:45,508
12/9/18 14:45,508
12/9/18 14:45,508
12/9/18 14:45,508
12/9/18 14:45,508
12/9/18 14:45,509
12/9/18 14:45,507
12/9/18 14:45,509
12/9/18 14:45,510
12/9/18 14:45,509
12/9/18 14:45,509
12/9/18 14:45,509
12/9/18 14:45,509
12/9/18 14:45,510
12/9/18 14:45,510
12/9/18 14:45,511
12/9/18 14:45,508
12/9/18 14:45,510
12/9/18 14:45,509
12/9/18 14:45,508
12/9/18 14:45,511
12/9/18 14:45,511
12/9/18 14:45,509
12/9/18 14:45,508
12/9/18 14:45,508
12/9/18 14:45,509
12/9/18 14:45,510
12/9/18 14:45,510
12/9/18 14:45,510
12/9/18 14:45,508
12/9/18 14:45,509
12/9/18 14:45,510
12/9/18 14:45,509
12/9/18 14:45,509
12/9/18 14:45,509
12/9/18 14:45,508
12/9/18 14:45,509
12/9/18 14:45,507
12/9/18 14:45,509
12/9/18 14:45,509
12/9/18 14:45,507
12/9/18 14:45,508
12/9/18 14:45,507
12/9/18 14:45,506
12/9/18 14:45,509
12/9/18 14:45,509
12/9/18 14:45,507
12/9/18 14:45,508
12/9/18 14:45,508
12/9/18 14:45,509
12/9/18 14:45,508
12/9/18 14:45,508
12/9/18 14:45,507
12/9/18 14:45,507
12/9/18 14:45,507
12/9/18 14:45,507
12/9/18 14:45,508
12/9/18 14:45,508
12/9/18 14:45,506
12/9/18 14:45,506
12/9/18 14:45,507
12/9/18 14:45,507
12/9/18 14:45,508
12/9/18 14:45,508
12/9/18 14:45,510
12/9/18 14:45,506
12/9/18 14:45,508
12/9/18 14:45,509
12/9/18 14:45,508
12/9/18 14:45,509
12/9/18 14:45,507
12/9/18 14:45,509
12/9/18 14:45,506
12/9/18 14:45,509
12/9/18 14:45,510
12/9/18 14:45,509
12/9/18 14:45,508
12/9/18 14:45,507
12/9/18 14:45,507
12/9/18 14:45,507
12/9/18 14:45,519
12/9/18 14:45,514
12/9/18 14:45,503
12/9/18 14:45,501
12/9/18 14:45,502
12/9/18 14:45,508
12/9/18 14:45,514
12/9/18 14:45,516
12/9/18 14:45,507
12/9/18 14:45,507
12/9/18 14:45,513
12/9/18 14:45,515
12/9/18 14:45,507
12/9/18 14:45,505
12/9/18 14:45,506
12/9/18 14:45,505
12/9/18 14:45,506
12/9/18 14:45,505
12/9/18 14:45,503
12/9/18 14:45,505
12/9/18 14:45,507
12/9/18 14:45,506
12/9/18 14:45,506
12/9/18 14:45,506
12/9/18 14:45,506
12/9/18 14:45,506
12/9/18 14:45,508
12/9/18 14:45,506
12/9/18 14:45,508
12/9/18 14:45,509
12/9/18 14:45,508
12/9/18 14:45,507
12/9/18 14:45,508
12/9/18 14:45,508
12/9/18 14:45,510
12/9/18 14:45,507
12/9/18 14:45,508
12/9/18 14:45,508
12/9/18 14:45,509
12/9/18 14:45,508
12/9/18 14:45,509
12/9/18 14:45,508
12/9/18 14:45,510
12/9/18 14:45,508
12/9/18 14:45,510
12/9/18 14:45,509
12/9/18 14:45,510
12/9/18 14:45,510
12/9/18 14:45,510
12/9/18 14:45,510
12/9/18 14:45,511
12/9/18 14:45,510
12/9/18 14:45,508
12/9/18 14:45,508
12/9/18 14:45,508
12/9/18 14:45,508
12/9/18 14:45,508
12/9/18 14:45,509
12/9/18 14:45,509
12/9/18 14:45,508
12/9/18 14:45,508
12/9/18 14:45,509
12/9/18 14:45,509
12/9/18 14:45,510
12/9/18 14:45,507
12/9/18 14:45,508
12/9/18 14:45,510
12/9/18 14:45,507
12/9/18 14:45,509
12/9/18 14:45,508
12/9/18 14:45,506
12/9/18 14:45,507
12/9/18 14:45,508
12/9/18 14:45,509
12/9/18 14:45,508
12/9/18 14:45,509
12/9/18 14:45,508
12/9/18 14:45,507
12/9/18 14:45,508
12/9/18 14:45,507
12/9/18 14:45,507
12/9/18 14:45,508
12/9/18 14:45,506
12/9/18 14:45,507
12/9/18 14:45,508
12/9/18 14:45,507
12/9/18 14:45,509
12/9/18 14:45,508
12/9/18 14:45,506
12/9/18 14:45,509
12/9/18 14:45,508
12/9/18 14:45,507
12/9/18 14:45,507
12/9/18 14:45,508
12/9/18 14:45,507
12/9/18 14:45,506
12/9/18 14:45,508
12/9/18 14:45,509
12/9/18 14:45,509
12/9/18 14:45,509
12/9/18 14:45,509
12/9/18 14:45,509
12/9/18 14:45,509
12/9/18 14:45,507
12/9/18 14:45,510
12/9/18 14:45,509
12/9/18 14:45,508
12/9/18 14:45,508
12/9/18 14:45,508
12/9/18 14:45,508
12/9/18 14:45,510
12/9/18 14:45,514
12/9/18 14:45,513
12/9/18 14:45,501
12/9/18 14:45,505
12/9/18 14:45,504
12/9/18 14:45,508
12/9/18 14:45,511
12/9/18 14:45,516
12/9/18 14:45,508
12/9/18 14:45,513
12/9/18 14:45,505
12/9/18 14:45,510
12/9/18 14:45,504
12/9/18 14:45,502
12/9/18 14:45,503
12/9/18 14:45,506
12/9/18 14:45,505
12/9/18 14:45,505
12/9/18 14:45,508
12/9/18 14:45,509
12/9/18 14:45,508
12/9/18 14:45,507
12/9/18 14:45,508
12/9/18 14:45,505
12/9/18 14:45,508
12/9/18 14:45,507
12/9/18 14:45,506
12/9/18 14:45,505
12/9/18 14:45,508
12/9/18 14:45,509
12/9/18 14:45,508
12/9/18 14:45,507
12/9/18 14:45,509
12/9/18 14:45,509
12/9/18 14:45,507
12/9/18 14:45,509
12/9/18 14:45,510
12/9/18 14:45,509
12/9/18 14:45,510
12/9/18 14:45,509
12/9/18 14:45,507
12/9/18 14:45,508
12/9/18 14:45,507
12/9/18 14:45,510
12/9/18 14:45,507
12/9/18 14:45,509
12/9/18 14:45,508
12/9/18 14:45,510
12/9/18 14:45,511
12/9/18 14:45,509
12/9/18 14:45,509
12/9/18 14:45,510
12/9/18 14:45,509
12/9/18 14:45,510
12/9/18 14:45,511
12/9/18 14:45,509
12/9/18 14:45,509
12/9/18 14:45,508
12/9/18 14:45,509
12/9/18 14:45,508
12/9/18 14:45,509
12/9/18 14:45,509
12/9/18 14:45,509
12/9/18 14:45,510
12/9/18 14:45,510
12/9/18 14:45,508
12/9/18 14:45,509
12/9/18 14:45,508
12/9/18 14:45,508
12/9/18 14:45,507
12/9/18 14:45,507
12/9/18 14:45,507
12/9/18 14:45,508
12/9/18 14:45,509
12/9/18 14:45,509
12/9/18 14:45,509
12/9/18 14:45,508
12/9/18 14:45,508
12/9/18 14:45,508
12/9/18 14:45,508
12/9/18 14:45,508
12/9/18 14:45,507
12/9/18 14:45,507
12/9/18 14:45,508
12/9/18 14:45,507
12/9/18 14:45,507
12/9/18 14:45,507
12/9/18 14:45,509
12/9/18 14:45,509
12/9/18 14:45,508
12/9/18 14:45,506
12/9/18 14:45,509
12/9/18 14:45,506
12/9/18 14:45,506
12/9/18 14:45,507
12/9/18 14:45,509
12/9/18 14:45,508
12/9/18 14:45,509
12/9/18 14:45,507
12/9/18 14:45,508
12/9/18 14:45,509
12/9/18 14:45,507
12/9/18 14:45,508
12/9/18 14:45,508
12/9/18 14:45,509
12/9/18 14:45,508
12/9/18 14:45,508
12/9/18 14:45,509
12/9/18 14:45,509
12/9/18 14:45,507
12/9/18 14:45,520
12/9/18 14:45,513
12/9/18 14:45,507
12/9/18 14:45,507
12/9/18 14:45,501
12/9/18 14:45,505
12/9/18 14:45,509
12/9/18 14:45,517
12/9/18 14:45,511
12/9/18 14:45,508
12/9/18 14:45,514
12/9/18 14:45,509
12/9/18 14:45,503
12/9/18 14:45,504
12/9/18 14:45,501
12/9/18 14:45,504
12/9/18 14:45,508
12/9/18 14:45,509
12/9/18 14:45,510
12/9/18 14:45,506
12/9/18 14:45,504
12/9/18 14:45,505
12/9/18 14:45,507
12/9/18 14:45,507
12/9/18 14:45,508
12/9/18 14:45,508
12/9/18 14:45,506
12/9/18 14:45,507
12/9/18 14:45,507
12/9/18 14:45,507
12/9/18 14:45,507
12/9/18 14:45,506
12/9/18 14:45,508
12/9/18 14:45,509
12/9/18 14:45,508
12/9/18 14:45,506
12/9/18 14:45,509
12/9/18 14:45,508
12/9/18 14:45,510
12/9/18 14:45,508
12/9/18 14:45,509
12/9/18 14:45,508
12/9/18 14:45,508
12/9/18 14:45,510
12/9/18 14:45,507
12/9/18 14:45,509
12/9/18 14:45,508
12/9/18 14:45,508
12/9/18 14:45,510
12/9/18 14:54,507
12/9/18 14:54,506
12/9/18 14:54,508
12/9/18 14:54,505
12/9/18 14:54,509
12/9/18 14:54,507
12/9/18 14:54,509
12/9/18 14:54,508
12/9/18 14:54,507
12/9/18 14:54,509
12/9/18 14:54,507
12/9/18 14:54,510
12/9/18 14:54,508
12/9/18 14:54,510
12/9/18 14:54,509
12/9/18 14:54,509
12/9/18 14:54,509
12/9/18 14:54,510
12/9/18 14:54,509
12/9/18 14:54,510
12/9/18 14:54,509
12/9/18 14:54,509
12/9/18 14:54,510
12/9/18 14:54,507
12/9/18 14:54,510
12/9/18 14:54,510
12/9/18 14:54,510
12/9/18 14:54,508
12/9/18 14:54,508
12/9/18 14:54,510
12/9/18 14:54,507
12/9/18 14:54,509
12/9/18 14:54,509
12/9/18 14:54,509
12/9/18 14:54,510
12/9/18 14:54,509
12/9/18 14:54,508
12/9/18 14:54,508
12/9/18 14:54,507
12/9/18 14:54,508
12/9/18 14:54,507
12/9/18 14:54,509
12/9/18 14:54,507
12/9/18 14:54,508
12/9/18 14:54,509
12/9/18 14:54,507
12/9/18 14:54,509
12/9/18 14:54,509
12/9/18 14:54,507
12/9/18 14:54,509
12/9/18 14:54,509
12/9/18 14:54,508
12/9/18 14:54,507
12/9/18 14:54,505
12/9/18 14:54,509
12/9/18 14:54,507
12/9/18 14:54,509
12/9/18 14:54,507
12/9/18 14:54,506
12/9/18 14:54,508
12/9/18 14:54,507
12/9/18 14:54,507
12/9/18 14:54,507
12/9/18 14:54,509
12/9/18 14:54,508
12/9/18 14:54,505
12/9/18 14:54,510
12/9/18 14:54,507
12/9/18 14:54,510
12/9/18 14:54,507
12/9/18 14:54,508
12/9/18 14:54,508
12/9/18 14:54,508
12/9/18 14:54,509
12/9/18 14:54,507
12/9/18 14:54,507
12/9/18 14:54,510
12/9/18 14:54,508
12/9/18 14:54,509
12/9/18 14:54,507
12/9/18 14:54,529
12/9/18 14:54,523
12/9/18 14:54,507
12/9/18 14:54,504
12/9/18 14:54,494
12/9/18 14:54,500
12/9/18 14:54,511
12/9/18 14:54,511
12/9/18 14:54,516
12/9/18 14:54,508
12/9/18 14:54,506
12/9/18 14:54,509
12/9/18 14:54,511
12/9/18 14:54,509
12/9/18 14:54,505
12/9/18 14:54,504
12/9/18 14:54,506
12/9/18 14:54,505
12/9/18 14:54,507
12/9/18 14:54,505
12/9/18 14:54,504
12/9/18 14:54,506
12/9/18 14:54,506
12/9/18 14:54,506
12/9/18 14:54,506
12/9/18 14:54,506
12/9/18 14:54,506
12/9/18 14:54,506
12/9/18 14:54,507
12/9/18 14:54,507
12/9/18 14:54,509
12/9/18 14:54,509
12/9/18 14:54,508
12/9/18 14:54,509
12/9/18 14:54,507
12/9/18 14:54,507
12/9/18 14:54,510
12/9/18 14:54,508
12/9/18 14:54,510
12/9/18 14:54,509
12/9/18 14:54,510
12/9/18 14:54,510
12/9/18 14:54,510
12/9/18 14:54,511
12/9/18 14:54,508
12/9/18 14:54,512
12/9/18 14:54,509
12/9/18 14:54,509
12/9/18 14:54,512
12/9/18 14:54,509
12/9/18 14:54,510
12/9/18 14:54,509
12/9/18 14:54,509
12/9/18 14:54,510
12/9/18 14:54,507
12/9/18 14:54,509
12/9/18 14:54,510
12/9/18 14:54,507
12/9/18 14:54,511
12/9/18 14:54,508
12/9/18 14:54,510
12/9/18 14:54,509
12/9/18 14:54,509
12/9/18 14:54,509
12/9/18 14:54,509
12/9/18 14:54,511
12/9/18 14:54,507
12/9/18 14:54,507
12/9/18 14:54,510
12/9/18 14:54,507
12/9/18 14:54,509
12/9/18 14:54,508
12/9/18 14:54,508
12/9/18 14:54,507
12/9/18 14:54,506
12/9/18 14:54,508
12/9/18 14:54,509
12/9/18 14:54,509
12/9/18 14:54,508
12/9/18 14:54,508
12/9/18 14:54,508
12/9/18 14:54,509
12/9/18 14:54,508
12/9/18 14:54,508
12/9/18 14:54,506
12/9/18 14:54,508
12/9/18 14:54,506
12/9/18 14:54,507
12/9/18 14:54,508
12/9/18 14:54,506
12/9/18 14:54,507
12/9/18 14:54,507
12/9/18 14:54,509
12/9/18 14:54,508
12/9/18 14:54,507
12/9/18 14:54,510
12/9/18 14:54,508
12/9/18 14:54,509
12/9/18 14:54,507
12/9/18 14:54,507
12/9/18 14:54,508
12/9/18 14:54,507
12/9/18 14:54,507
12/9/18 14:54,510
12/9/18 14:54,507
12/9/18 14:54,508
12/9/18 14:54,508
12/9/18 14:54,508
12/9/18 14:54,509
12/9/18 14:54,508
12/9/18 14:54,509
12/9/18 14:54,506
12/9/18 14:54,509
12/9/18 14:54,507
12/9/18 14:54,507
12/9/18 14:54,508
12/9/18 14:54,508
12/9/18 14:54,527
12/9/18 14:54,519
12/9/18 14:54,506
12/9/18 14:54,505
12/9/18 14:54,495
12/9/18 14:54,505
12/9/18 14:54,511
12/9/18 14:54,513
12/9/18 14:54,513
12/9/18 14:54,509
12/9/18 14:54,507
12/9/18 14:54,507
12/9/18 14:54,510
12/9/18 14:54,507
12/9/18 14:54,504
12/9/18 14:54,505
12/9/18 14:54,505
12/9/18 14:54,505
12/9/18 14:54,507
12/9/18 14:54,506
12/9/18 14:54,506
12/9/18 14:54,506
12/9/18 14:54,506
12/9/18 14:54,506
12/9/18 14:54,506
12/9/18 14:54,507
12/9/18 14:54,507
12/9/18 14:54,508
12/9/18 14:54,509
12/9/18 14:54,508
12/9/18 14:54,506
12/9/18 14:54,506
12/9/18 14:54,510
12/9/18 14:54,508
12/9/18 14:54,508
12/9/18 14:54,510
12/9/18 14:54,509
12/9/18 14:54,509
12/9/18 14:54,510
12/9/18 14:54,510
12/9/18 14:54,510
12/9/18 14:54,509
12/9/18 14:54,511
12/9/18 14:54,508
12/9/18 14:54,509
12/9/18 14:54,510
12/9/18 14:54,509
12/9/18 14:54,509
12/9/18 14:54,508
12/9/18 14:54,510
12/9/18 14:54,509
12/9/18 14:54,507
12/9/18 14:54,510
12/9/18 14:54,508
12/9/18 14:54,508
12/9/18 14:54,509
12/9/18 14:54,509
12/9/18 14:54,510
12/9/18 14:54,509
12/9/18 14:54,511
12/9/18 14:54,508
12/9/18 14:54,508
12/9/18 14:54,508
12/9/18 14:54,509
12/9/18 14:54,508
12/9/18 14:54,509
12/9/18 14:54,509
12/9/18 14:54,509
12/9/18 14:54,508
12/9/18 14:54,509
12/9/18 14:54,509
12/9/18 14:54,509
12/9/18 14:54,508
12/9/18 14:54,508
12/9/18 14:54,508
12/9/18 14:54,508
12/9/18 14:54,508
12/9/18 14:54,510
12/9/18 14:54,507
12/9/18 14:54,509
12/9/18 14:54,508
12/9/18 14:54,506
12/9/18 14:54,508
12/9/18 14:54,506
12/9/18 14:54,509
12/9/18 14:54,507
12/9/18 14:54,507
12/9/18 14:54,507
12/9/18 14:54,505
12/9/18 14:54,508
12/9/18 14:54,506
12/9/18 14:54,507
12/9/18 14:54,508
12/9/18 14:54,505
12/9/18 14:54,508
12/9/18 14:54,508
12/9/18 14:54,506
12/9/18 14:54,510
12/9/18 14:54,508
12/9/18 14:54,508
12/9/18 14:54,507
12/9/18 14:54,507
12/9/18 14:54,508
12/9/18 14:54,509
12/9/18 14:54,509
12/9/18 14:54,509
12/9/18 14:54,508
12/9/18 14:54,508
12/9/18 14:54,509
12/9/18 14:54,509
12/9/18 14:54,508
12/9/18 14:54,509
12/9/18 14:54,509
12/9/18 14:54,511
12/9/18 14:54,528
12/9/18 14:54,494
12/9/18 14:54,500
12/9/18 14:54,514
12/9/18 14:54,507
12/9/18 14:54,514
12/9/18 14:54,511
12/9/18 14:54,510
12/9/18 14:54,513
12/9/18 14:54,504
12/9/18 14:54,507
12/9/18 14:54,508
12/9/18 14:54,509
12/9/18 14:54,509
12/9/18 14:54,510
12/9/18 14:54,505
12/9/18 14:54,502
12/9/18 14:54,506
12/9/18 14:54,504
12/9/18 14:54,505
12/9/18 14:54,507
12/9/18 14:54,504
12/9/18 14:54,506
12/9/18 14:54,507
12/9/18 14:54,506
12/9/18 14:54,507
12/9/18 14:54,506
12/9/18 14:54,507
12/9/18 14:54,507
12/9/18 14:54,509
12/9/18 14:54,508
12/9/18 14:54,506
12/9/18 14:54,509
12/9/18 14:54,507
12/9/18 14:54,508
12/9/18 14:54,509
12/9/18 14:54,509
12/9/18 14:54,509
12/9/18 14:54,509
12/9/18 14:54,508
12/9/18 14:54,508
12/9/18 14:54,508
12/9/18 14:54,510
12/9/18 14:54,508
12/9/18 14:54,508
12/9/18 14:54,510
12/9/18 14:54,510
12/9/18 14:54,510
12/9/18 14:54,508
12/9/18 14:54,511
12/9/18 14:54,510
12/9/18 14:54,508
12/9/18 14:54,510
12/9/18 14:54,509
12/9/18 14:54,509
12/9/18 14:54,509
12/9/18 14:54,509
12/9/18 14:54,512
12/9/18 14:54,509
12/9/18 14:54,510
12/9/18 14:54,510
12/9/18 14:54,508
12/9/18 14:54,509
12/9/18 14:54,507
12/9/18 14:54,509
12/9/18 14:54,510
12/9/18 14:54,507
12/9/18 14:54,511
12/9/18 14:54,507
12/9/18 14:54,508
12/9/18 14:54,508
12/9/18 14:54,509
12/9/18 14:54,509
12/9/18 14:54,505
12/9/18 14:54,507
12/9/18 14:54,508
12/9/18 14:54,509
12/9/18 14:54,509
12/9/18 14:54,509
12/9/18 14:54,509
12/9/18 14:54,508
12/9/18 14:54,508
12/9/18 14:54,508
12/9/18 14:54,506
12/9/18 14:54,509
12/9/18 14:54,508
12/9/18 14:54,507
12/9/18 14:54,507
12/9/18 14:54,507
12/9/18 14:54,508
12/9/18 14:54,508
12/9/18 14:54,506
12/9/18 14:54,509
12/9/18 14:54,507
12/9/18 14:54,508
12/9/18 14:54,506
12/9/18 14:54,507
12/9/18 14:54,510
12/9/18 14:54,507
12/9/18 14:54,507
12/9/18 14:54,507
12/9/18 14:54,509
12/9/18 14:54,509
12/9/18 14:54,507
12/9/18 14:54,509
12/9/18 14:54,509
12/9/18 14:54,509
12/9/18 14:54,509
12/9/18 14:54,506
12/9/18 14:54,509
12/9/18 14:54,507
12/9/18 14:54,507
12/9/18 14:54,508
12/9/18 14:54,508
12/9/18 14:54,530
12/9/18 14:54,511
12/9/18 14:54,497
12/9/18 14:54,491
12/9/18 14:54,485
12/9/18 14:54,521
12/9/18 14:54,516
12/9/18 14:54,523
12/9/18 14:54,517
12/9/18 14:54,511
12/9/18 14:54,514
12/9/18 14:54,508
12/9/18 14:54,506
12/9/18 14:54,507
12/9/18 14:54,509
12/9/18 14:54,504
12/9/18 14:54,504
12/9/18 14:54,505
12/9/18 14:54,506
12/9/18 14:54,506
12/9/18 14:54,506
12/9/18 14:54,505
12/9/18 14:54,507
12/9/18 14:54,506
12/9/18 14:54,506
12/9/18 14:54,507
12/9/18 14:54,508
12/9/18 14:54,508
12/9/18 14:54,505
12/9/18 14:54,504
12/9/18 14:54,506
12/9/18 14:54,505
12/9/18 14:54,508
12/9/18 14:54,506
12/9/18 14:54,508
12/9/18 14:54,507
12/9/18 14:54,507
12/9/18 14:54,508
12/9/18 14:54,507
12/9/18 14:54,508
12/9/18 14:54,509
12/9/18 14:54,506
12/9/18 14:54,510
12/9/18 14:54,508
12/9/18 14:54,510
12/9/18 14:54,510
12/9/18 14:54,507
12/9/18 14:54,511
12/9/18 14:54,510
12/9/18 14:54,510
12/9/18 14:54,509
12/9/18 14:54,508
12/9/18 14:54,510
12/9/18 14:54,509
12/9/18 14:54,511
12/9/18 14:54,508
12/9/18 14:54,507
12/9/18 14:54,509
12/9/18 14:54,507
12/9/18 14:54,511
12/9/18 14:54,510
12/9/18 14:54,507
12/9/18 14:54,513
12/9/18 14:54,509
12/9/18 14:54,509
12/9/18 14:54,507
12/9/18 14:54,508
12/9/18 14:54,510
12/9/18 14:54,506
12/9/18 14:54,509
12/9/18 14:54,508
12/9/18 14:54,508
12/9/18 14:54,509
12/9/18 14:54,507
12/9/18 14:54,510
12/9/18 14:54,509
12/9/18 14:54,509
12/9/18 14:54,509
12/9/18 14:54,509
12/9/18 14:54,508
12/9/18 14:54,508
12/9/18 14:54,507
12/9/18 14:54,510
12/9/18 14:54,506
12/9/18 14:54,509
12/9/18 14:54,508
12/9/18 14:54,509
12/9/18 14:54,509
12/9/18 14:54,507
12/9/18 14:54,508
12/9/18 14:54,507
12/9/18 14:54,508
12/9/18 14:54,508
12/9/18 14:54,507
12/9/18 14:54,508
12/9/18 14:54,508
12/9/18 14:54,508
12/9/18 14:54,506
12/9/18 14:54,508
12/9/18 14:54,508
12/9/18 14:54,506
12/9/18 14:54,508
12/9/18 14:54,508
12/9/18 14:54,506
12/9/18 14:54,509
12/9/18 14:54,506
12/9/18 14:54,508
12/9/18 14:54,508
12/9/18 14:54,508
12/9/18 14:54,508
12/9/18 14:54,508
12/9/18 14:54,509
12/9/18 14:54,508
12/9/18 14:54,509
12/9/18 14:54,508
12/9/18 14:54,507
12/9/18 14:54,508
12/9/18 14:54,509
12/9/18 14:54,508
12/9/18 14:54,530
12/9/18 14:54,520
12/9/18 14:54,505
12/9/18 14:54,501
12/9/18 14:54,497
12/9/18 14:54,505
12/9/18 14:54,507
12/9/18 14:54,515
12/9/18 14:54,510
12/9/18 14:54,508
12/9/18 14:54,506
12/9/18 14:54,509
12/9/18 14:54,510
12/9/18 14:54,505
12/9/18 14:54,511
12/9/18 14:54,509
12/9/18 14:54,505
12/9/18 14:54,507
12/9/18 14:54,504
12/9/18 14:54,504
12/9/18 14:54,504
12/9/18 14:54,503
12/9/18 14:54,505
12/9/18 14:54,503
12/9/18 14:54,506
12/9/18 14:54,506
12/9/18 14:54,506
12/9/18 14:54,507
12/9/18 14:54,507
12/9/18 14:54,508
12/9/18 14:54,509
12/9/18 14:54,508
12/9/18 14:54,508
12/9/18 14:54,507
12/9/18 14:54,511
12/9/18 14:54,508
12/9/18 14:54,507
12/9/18 14:54,511
12/9/18 14:54,507
12/9/18 14:54,510
12/9/18 14:54,508
12/9/18 14:54,509
12/9/18 14:54,510
12/9/18 14:54,508
12/9/18 14:54,510
12/9/18 14:54,509
12/9/18 14:54,509
12/9/18 14:54,509
12/9/18 14:54,509
12/9/18 14:54,510
12/9/18 14:54,508
12/9/18 14:54,510
12/9/18 14:54,509
12/9/18 14:54,508
12/9/18 14:54,510
12/9/18 14:54,510
12/9/18 15:03,507
12/9/18 15:03,508
12/9/18 15:03,509
12/9/18 15:03,507
12/9/18 15:03,507
12/9/18 15:03,508
12/9/18 15:03,510
12/9/18 15:03,508
12/9/18 15:03,509
12/9/18 15:03,507
12/9/18 15:03,506
12/9/18 15:03,507
12/9/18 15:03,510
12/9/18 15:03,510
12/9/18 15:03,510
12/9/18 15:03,509
12/9/18 15:03,509
12/9/18 15:03,506
12/9/18 15:03,511
12/9/18 15:03,509
12/9/18 15:03,510
12/9/18 15:03,509
12/9/18 15:03,508
12/9/18 15:03,512
12/9/18 15:03,508
12/9/18 15:03,510
12/9/18 15:03,509
12/9/18 15:03,509
12/9/18 15:03,510
12/9/18 15:03,508
12/9/18 15:03,508
12/9/18 15:03,508
12/9/18 15:03,508
12/9/18 15:03,510
12/9/18 15:03,507
12/9/18 15:03,511
12/9/18 15:03,509
12/9/18 15:03,508
12/9/18 15:03,508
12/9/18 15:03,508
12/9/18 15:03,509
12/9/18 15:03,510
12/9/18 15:03,508
12/9/18 15:03,508
12/9/18 15:03,508
12/9/18 15:03,509
12/9/18 15:03,509
12/9/18 15:03,508
12/9/18 15:03,508
12/9/18 15:03,507
12/9/18 15:03,508
12/9/18 15:03,507
12/9/18 15:03,507
12/9/18 15:03,508
12/9/18 15:03,506
12/9/18 15:03,508
12/9/18 15:03,509
12/9/18 15:03,508
12/9/18 15:03,507
12/9/18 15:03,507
12/9/18 15:03,506
12/9/18 15:03,508
12/9/18 15:03,507
12/9/18 15:03,508
12/9/18 15:03,506
12/9/18 15:03,508
12/9/18 15:03,506
12/9/18 15:03,507
12/9/18 15:03,507
12/9/18 15:03,509
12/9/18 15:03,509
12/9/18 15:03,506
12/9/18 15:03,509
12/9/18 15:03,508
12/9/18 15:03,508
12/9/18 15:03,509
12/9/18 15:03,508
12/9/18 15:03,507
12/9/18 15:03,508
12/9/18 15:03,506
12/9/18 15:03,510
12/9/18 15:03,508
12/9/18 15:03,533
12/9/18 15:03,530
12/9/18 15:03,511
12/9/18 15:03,496
12/9/18 15:03,492
12/9/18 15:03,499
12/9/18 15:03,506
12/9/18 15:03,513
12/9/18 15:03,512
12/9/18 15:03,511
12/9/18 15:03,505
12/9/18 15:03,513
12/9/18 15:03,514
12/9/18 15:03,506
12/9/18 15:03,504
12/9/18 15:03,504
12/9/18 15:03,502
12/9/18 15:03,503
12/9/18 15:03,504
12/9/18 15:03,505
12/9/18 15:03,507
12/9/18 15:03,507
12/9/18 15:03,506
12/9/18 15:03,507
12/9/18 15:03,506
12/9/18 15:03,509
12/9/18 15:03,508
12/9/18 15:03,507
12/9/18 15:03,508
12/9/18 15:03,510
12/9/18 15:03,508
12/9/18 15:03,509
12/9/18 15:03,509
12/9/18 15:03,509
12/9/18 15:03,507
12/9/18 15:03,510
12/9/18 15:03,508
12/9/18 15:03,509
12/9/18 15:03,509
12/9/18 15:03,507
12/9/18 15:03,510
12/9/18 15:03,508
12/9/18 15:03,513
12/9/18 15:03,511
12/9/18 15:03,509
12/9/18 15:03,510
12/9/18 15:03,509
12/9/18 15:03,510
12/9/18 15:03,508
12/9/18 15:03,509
12/9/18 15:03,511
12/9/18 15:03,509
12/9/18 15:03,510
12/9/18 15:03,508
12/9/18 15:03,507
12/9/18 15:03,511
12/9/18 15:03,509
12/9/18 15:03,510
12/9/18 15:03,508
12/9/18 15:03,508
12/9/18 15:03,509
12/9/18 15:03,508
12/9/18 15:03,509
12/9/18 15:03,509
12/9/18 15:03,507
12/9/18 15:03,507
12/9/18 15:03,509
12/9/18 15:03,509
12/9/18 15:03,509
12/9/18 15:03,507
12/9/18 15:03,509
12/9/18 15:03,510
12/9/18 15:03,508
12/9/18 15:03,509
12/9/18 15:03,507
12/9/18 15:03,508
12/9/18 15:03,509
12/9/18 15:03,510
12/9/18 15:03,509
12/9/18 15:03,506
12/9/18 15:03,508
12/9/18 15:03,508
12/9/18 15:03,509
12/9/18 15:03,509
12/9/18 15:03,507
12/9/18 15:03,508
12/9/18 15:03,509
12/9/18 15:03,508
12/9/18 15:03,507
12/9/18 15:03,506
12/9/18 15:03,509
12/9/18 15:03,508
12/9/18 15:03,508
12/9/18 15:03,507
12/9/18 15:03,506
12/9/18 15:03,507
12/9/18 15:03,506
12/9/18 15:03,509
12/9/18 15:03,506
12/9/18 15:03,509
12/9/18 15:03,508
12/9/18 15:03,508
12/9/18 15:03,509
12/9/18 15:03,507
12/9/18 15:03,508
12/9/18 15:03,508
12/9/18 15:03,507
12/9/18 15:03,510
12/9/18 15:03,507
12/9/18 15:03,509
12/9/18 15:03,508
12/9/18 15:03,508
12/9/18 15:03,510
12/9/18 15:03,506
12/9/18 15:03,507
12/9/18 15:03,506
12/9/18 15:03,509
12/9/18 15:03,510
12/9/18 15:03,506
12/9/18 15:03,508
12/9/18 15:03,509
12/9/18 15:03,511
12/9/18 15:03,523
12/9/18 15:03,517
12/9/18 15:03,504
12/9/18 15:03,498
12/9/18 15:03,496
12/9/18 15:03,510
12/9/18 15:03,513
12/9/18 15:03,510
12/9/18 15:03,503
12/9/18 15:03,510
12/9/18 15:03,515
12/9/18 15:03,507
12/9/18 15:03,503
12/9/18 15:03,503
12/9/18 15:03,503
12/9/18 15:03,504
12/9/18 15:03,505
12/9/18 15:03,507
12/9/18 15:03,506
12/9/18 15:03,506
12/9/18 15:03,507
12/9/18 15:03,507
12/9/18 15:03,508
12/9/18 15:03,508
12/9/18 15:03,508
12/9/18 15:03,508
12/9/18 15:03,506
12/9/18 15:03,508
12/9/18 15:03,508
12/9/18 15:03,508
12/9/18 15:03,511
12/9/18 15:03,507
12/9/18 15:03,510
12/9/18 15:03,509
12/9/18 15:03,508
12/9/18 15:03,511
12/9/18 15:03,507
12/9/18 15:03,510
12/9/18 15:03,507
12/9/18 15:03,508
12/9/18 15:03,508
12/9/18 15:03,509
12/9/18 15:03,508
12/9/18 15:03,509
12/9/18 15:03,509
12/9/18 15:03,510
12/9/18 15:03,509
12/9/18 15:03,510
12/9/18 15:03,508
12/9/18 15:03,510
12/9/18 15:03,510
12/9/18 15:03,509
12/9/18 15:03,510
12/9/18 15:03,508
12/9/18 15:03,509
12/9/18 15:03,511
12/9/18 15:03,508
12/9/18 15:03,509
12/9/18 15:03,509
12/9/18 15:03,508
12/9/18 15:03,510
12/9/18 15:03,509
12/9/18 15:03,508
12/9/18 15:03,508
12/9/18 15:03,509
12/9/18 15:03,507
12/9/18 15:03,507
12/9/18 15:03,507
12/9/18 15:03,508
12/9/18 15:03,511
12/9/18 15:03,505
12/9/18 15:03,504
12/9/18 15:03,508
12/9/18 15:03,509
12/9/18 15:03,510
12/9/18 15:03,508
12/9/18 15:03,509
12/9/18 15:03,512
12/9/18 15:03,508
12/9/18 15:03,510
12/9/18 15:03,506
12/9/18 15:03,509
12/9/18 15:03,507
12/9/18 15:03,508
12/9/18 15:03,507
12/9/18 15:03,507
12/9/18 15:03,507
12/9/18 15:03,507
12/9/18 15:03,506
12/9/18 15:03,508
12/9/18 15:03,506
12/9/18 15:03,507
12/9/18 15:03,507
12/9/18 15:03,507
12/9/18 15:03,508
12/9/18 15:03,508
12/9/18 15:03,509
12/9/18 15:03,510
12/9/18 15:03,509
12/9/18 15:03,509
12/9/18 15:03,506
12/9/18 15:03,503
12/9/18 15:03,506
12/9/18 15:03,505
12/9/18 15:03,511
12/9/18 15:03,509
12/9/18 15:03,509
12/9/18 15:03,510
12/9/18 15:03,508
12/9/18 15:03,509
12/9/18 15:03,513
12/9/18 15:03,520
12/9/18 15:03,517
12/9/18 15:03,506
12/9/18 15:03,498
12/9/18 15:03,498
12/9/18 15:03,507
12/9/18 15:03,510
12/9/18 15:03,515
12/9/18 15:03,509
12/9/18 15:03,509
12/9/18 15:03,509
12/9/18 15:03,507
12/9/18 15:03,505
12/9/18 15:03,508
12/9/18 15:03,508
12/9/18 15:03,511
12/9/18 15:03,507
12/9/18 15:03,504
12/9/18 15:03,505
12/9/18 15:03,504
12/9/18 15:03,505
12/9/18 15:03,505
12/9/18 15:03,502
12/9/18 15:03,507
12/9/18 15:03,506
12/9/18 15:03,506
12/9/18 15:03,506
12/9/18 15:03,507
12/9/18 15:03,508
12/9/18 15:03,507
12/9/18 15:03,508
12/9/18 15:03,507
12/9/18 15:03,508
12/9/18 15:03,510
12/9/18 15:03,508
12/9/18 15:03,510
12/9/18 15:03,508
12/9/18 15:03,507
12/9/18 15:03,509
12/9/18 15:03,509
12/9/18 15:03,509
12/9/18 15:03,508
12/9/18 15:03,509
12/9/18 15:03,510
12/9/18 15:03,508
12/9/18 15:03,510
12/9/18 15:03,508
12/9/18 15:03,510
12/9/18 15:03,509
12/9/18 15:03,508
12/9/18 15:03,510
12/9/18 15:03,511
12/9/18 15:03,509
12/9/18 15:03,509
12/9/18 15:03,506
12/9/18 15:03,510
12/9/18 15:03,512
12/9/18 15:03,508
12/9/18 15:03,506
12/9/18 15:03,509
12/9/18 15:03,510
12/9/18 15:03,511
12/9/18 15:03,514
12/9/18 15:03,510
12/9/18 15:03,510
12/9/18 15:03,511
12/9/18 15:03,510
12/9/18 15:03,508
12/9/18 15:03,509
12/9/18 15:03,508
12/9/18 15:03,509
12/9/18 15:03,507
12/9/18 15:03,509
12/9/18 15:03,509
12/9/18 15:03,508
12/9/18 15:03,508
12/9/18 15:03,507
12/9/18 15:03,509
12/9/18 15:03,508
12/9/18 15:03,507
12/9/18 15:03,508
12/9/18 15:03,507
12/9/18 15:03,509
12/9/18 15:03,508
12/9/18 15:03,508
12/9/18 15:03,507
12/9/18 15:03,507
12/9/18 15:03,508
12/9/18 15:03,506
12/9/18 15:03,506
12/9/18 15:03,508
12/9/18 15:03,506
12/9/18 15:03,508
12/9/18 15:03,507
12/9/18 15:03,506
12/9/18 15:03,506
12/9/18 15:03,506
12/9/18 15:03,509
12/9/18 15:03,508
12/9/18 15:03,509
12/9/18 15:03,507
12/9/18 15:03,506
12/9/18 15:03,508
12/9/18 15:03,507
12/9/18 15:03,509
12/9/18 15:03,509
12/9/18 15:03,505
12/9/18 15:03,508
12/9/18 15:03,508
12/9/18 15:03,508
12/9/18 15:03,508
12/9/18 15:03,506
12/9/18 15:03,512
12/9/18 15:03,507
12/9/18 15:03,508
12/9/18 15:03,507
12/9/18 15:03,508
12/9/18 15:03,507
12/9/18 15:03,506
12/9/18 15:03,507
12/9/18 15:03,510
12/9/18 15:03,532
12/9/18 15:03,514
12/9/18 15:03,480
12/9/18 15:03,475
12/9/18 15:03,488
12/9/18 15:03,544
12/9/18 15:03,534
12/9/18 15:03,521
12/9/18 15:03,523
12/9/18 15:03,511
12/9/18 15:03,508
12/9/18 15:03,504
12/9/18 15:03,507
12/9/18 15:03,509
12/9/18 15:03,506
12/9/18 15:03,505
12/9/18 15:03,507
12/9/18 15:03,505
12/9/18 15:03,502
12/9/18 15:03,501
12/9/18 15:03,503
12/9/18 15:03,504
12/9/18 15:03,504
12/9/18 15:03,507
12/9/18 15:03,507
12/9/18 15:03,505
12/9/18 15:03,508
12/9/18 15:03,508
12/9/18 15:03,509
12/9/18 15:03,510
12/9/18 15:03,509
12/9/18 15:03,509
12/9/18 15:03,506
12/9/18 15:03,507
12/9/18 15:03,508
12/9/18 15:03,509
12/9/18 15:03,510
12/9/18 15:03,508
12/9/18 15:03,511
12/9/18 15:03,509
12/9/18 15:03,507
12/9/18 15:03,508
12/9/18 15:03,509
12/9/18 15:03,510
12/9/18 15:03,508
12/9/18 15:03,508
12/9/18 15:03,512
12/9/18 15:03,508
12/9/18 15:03,511
12/9/18 15:03,508
12/9/18 15:03,510
12/9/18 15:03,510
12/9/18 15:03,508
12/9/18 15:03,510
12/9/18 15:03,507
12/9/18 15:03,507
12/9/18 15:03,509
12/9/18 15:03,510
12/9/18 15:03,512
12/9/18 15:03,510
12/9/18 15:03,509
12/9/18 15:03,508
12/9/18 15:03,510
12/9/18 15:03,509
12/9/18 15:03,508
12/9/18 15:03,510
12/9/18 15:03,508
12/9/18 15:03,507
12/9/18 15:03,509
12/9/18 15:03,507
12/9/18 15:03,510
12/9/18 15:03,509
12/9/18 15:03,508
12/9/18 15:03,508
12/9/18 15:03,507
12/9/18 15:03,508
12/9/18 15:03,508
12/9/18 15:03,508
12/9/18 15:03,506
12/9/18 15:03,506
12/9/18 15:03,508
12/9/18 15:03,508
12/9/18 15:03,508
12/9/18 15:03,509
12/9/18 15:03,507
12/9/18 15:03,507
12/9/18 15:03,507
12/9/18 15:03,509
12/9/18 15:03,507
12/9/18 15:03,507
12/9/18 15:03,508
12/9/18 15:03,507
12/9/18 15:03,507
12/9/18 15:03,506
12/9/18 15:03,507
12/9/18 15:03,509
12/9/18 15:03,506
12/9/18 15:03,508
12/9/18 15:03,507
12/9/18 15:03,507
12/9/18 15:03,507
12/9/18 15:03,510
12/9/18 15:03,509
12/9/18 15:03,509
12/9/18 15:03,508
12/9/18 15:03,509
12/9/18 15:03,508
12/9/18 15:03,507
12/9/18 15:03,508
12/9/18 15:03,507
12/9/18 15:03,509
12/9/18 15:03,508
12/9/18 15:03,509
12/9/18 15:03,506
12/9/18 15:03,506
12/9/18 15:03,533
12/9/18 15:03,526
12/9/18 15:03,505
12/9/18 15:03,498
12/9/18 15:03,492
12/9/18 15:03,504
12/9/18 15:03,506
12/9/18 15:03,511
12/9/18 15:03,515
12/9/18 15:03,510
12/9/18 15:03,509
12/9/18 15:03,507
12/9/18 15:03,505
12/9/18 15:03,512
12/9/18 15:03,508
12/9/18 15:03,505
12/9/18 15:03,503
12/9/18 15:03,503
12/9/18 15:03,506
12/9/18 15:03,505
12/9/18 15:03,507
12/9/18 15:03,507
12/9/18 15:03,507
12/9/18 15:03,509
12/9/18 15:03,508
12/9/18 15:03,508
12/9/18 15:03,503
12/9/18 15:03,506
12/9/18 15:03,508
12/9/18 15:03,509
12/9/18 15:03,508
12/9/18 15:03,507
12/9/18 15:03,508
12/9/18 15:03,507
12/9/18 15:03,508
12/9/18 15:03,507
12/9/18 15:03,509
12/9/18 15:03,509
12/9/18 15:03,509
12/9/18 15:03,509
12/9/18 15:03,509
12/9/18 15:03,508
12/9/18 15:03,511
12/9/18 15:03,510
12/9/18 15:03,510
12/9/18 15:03,508
12/9/18 15:03,508
12/9/18 15:03,509
12/9/18 15:03,510
12/9/18 15:12,508
12/9/18 15:12,509
12/9/18 15:12,507
12/9/18 15:12,508
12/9/18 15:12,507
12/9/18 15:12,510
12/9/18 15:12,509
12/9/18 15:12,508
12/9/18 15:12,508
12/9/18 15:12,509
12/9/18 15:12,509
12/9/18 15:12,508
12/9/18 15:12,507
12/9/18 15:12,508
12/9/18 15:12,509
12/9/18 15:12,508
12/9/18 15:12,508
12/9/18 15:12,509
12/9/18 15:12,510
12/9/18 15:12,507
12/9/18 15:12,508
12/9/18 15:12,508
12/9/18 15:12,508
12/9/18 15:12,507
12/9/18 15:12,508
12/9/18 15:12,507
12/9/18 15:12,507
12/9/18 15:12,507
12/9/18 15:12,509
12/9/18 15:12,507
12/9/18 15:12,506
12/9/18 15:12,507
12/9/18 15:12,509
12/9/18 15:12,509
12/9/18 15:12,507
12/9/18 15:12,507
12/9/18 15:12,509
12/9/18 15:12,508
12/9/18 15:12,509
12/9/18 15:12,508
12/9/18 15:12,507
12/9/18 15:12,508
12/9/18 15:12,507
12/9/18 15:12,509
12/9/18 15:12,506
12/9/18 15:12,508
12/9/18 15:12,508
12/9/18 15:12,507
12/9/18 15:12,507
12/9/18 15:12,506
12/9/18 15:12,511
12/9/18 15:12,508
12/9/18 15:12,507
12/9/18 15:12,508
12/9/18 15:12,508
12/9/18 15:12,509
12/9/18 15:12,511
12/9/18 15:12,515
12/9/18 15:12,523
12/9/18 15:12,504
12/9/18 15:12,504
12/9/18 15:12,486
12/9/18 15:12,499
12/9/18 15:12,511
12/9/18 15:12,509
12/9/18 15:12,511
12/9/18 15:12,513
12/9/18 15:12,516
12/9/18 15:12,512
12/9/18 15:12,508
12/9/18 15:12,506
12/9/18 15:12,511
12/9/18 15:12,508
12/9/18 15:12,505
12/9/18 15:12,503
12/9/18 15:12,503
12/9/18 15:12,505
12/9/18 15:12,504
12/9/18 15:12,507
12/9/18 15:12,507
12/9/18 15:12,508
12/9/18 15:12,508
12/9/18 15:12,507
12/9/18 15:12,507
12/9/18 15:12,508
12/9/18 15:12,508
12/9/18 15:12,509
12/9/18 15:12,508
12/9/18 15:12,508
12/9/18 15:12,504
12/9/18 15:12,507
12/9/18 15:12,507
12/9/18 15:12,509
12/9/18 15:12,510
12/9/18 15:12,510
12/9/18 15:12,512
12/9/18 15:12,509
12/9/18 15:12,510
12/9/18 15:12,511
12/9/18 15:12,509
12/9/18 15:12,509
12/9/18 15:12,508
12/9/18 15:12,510
12/9/18 15:12,510
12/9/18 15:12,508
12/9/18 15:12,509
12/9/18 15:12,508
12/9/18 15:12,509
12/9/18 15:12,509
12/9/18 15:12,509
12/9/18 15:12,507
12/9/18 15:12,510
12/9/18 15:12,509
12/9/18 15:12,510
12/9/18 15:12,509
12/9/18 15:12,509
12/9/18 15:12,509
12/9/18 15:12,508
12/9/18 15:12,509
12/9/18 15:12,510
12/9/18 15:12,509
12/9/18 15:12,509
12/9/18 15:12,510
12/9/18 15:12,508
12/9/18 15:12,509
12/9/18 15:12,508
12/9/18 15:12,509
12/9/18 15:12,508
12/9/18 15:12,509
12/9/18 15:12,508
12/9/18 15:12,507
12/9/18 15:12,509
12/9/18 15:12,509
12/9/18 15:12,508
12/9/18 15:12,508
12/9/18 15:12,509
12/9/18 15:12,507
12/9/18 15:12,509
12/9/18 15:12,508
12/9/18 15:12,509
12/9/18 15:12,509
12/9/18 15:12,507
12/9/18 15:12,508
12/9/18 15:12,508
12/9/18 15:12,507
12/9/18 15:12,506
12/9/18 15:12,506
12/9/18 15:12,507
12/9/18 15:12,507
12/9/18 15:12,507
12/9/18 15:12,506
12/9/18 15:12,509
12/9/18 15:12,505
12/9/18 15:12,506
12/9/18 15:12,504
12/9/18 15:12,508
12/9/18 15:12,509
12/9/18 15:12,511
12/9/18 15:12,509
12/9/18 15:12,510
12/9/18 15:12,511
12/9/18 15:12,509
12/9/18 15:12,506
12/9/18 15:12,511
12/9/18 15:12,520
12/9/18 15:12,523
12/9/18 15:12,504
12/9/18 15:12,502
12/9/18 15:12,491
12/9/18 15:12,508
12/9/18 15:12,510
12/9/18 15:12,511
12/9/18 15:12,510
12/9/18 15:12,509
12/9/18 15:12,506
12/9/18 15:12,505
12/9/18 15:12,501
12/9/18 15:12,503
12/9/18 15:12,505
12/9/18 15:12,507
12/9/18 15:12,508
12/9/18 15:12,509
12/9/18 15:12,507
12/9/18 15:12,509
12/9/18 15:12,509
12/9/18 15:12,509
12/9/18 15:12,507
12/9/18 15:12,510
12/9/18 15:12,507
12/9/18 15:12,509
12/9/18 15:12,509
12/9/18 15:12,509
12/9/18 15:12,508
12/9/18 15:12,507
12/9/18 15:12,508
12/9/18 15:12,506
12/9/18 15:12,499
12/9/18 15:12,507
12/9/18 15:12,509
12/9/18 15:12,510
12/9/18 15:12,509
12/9/18 15:12,510
12/9/18 15:12,509
12/9/18 15:12,509
12/9/18 15:12,510
12/9/18 15:12,508
12/9/18 15:12,507
12/9/18 15:12,507
12/9/18 15:12,505
12/9/18 15:12,507
12/9/18 15:12,510
12/9/18 15:12,508
12/9/18 15:12,510
12/9/18 15:12,510
12/9/18 15:12,510
12/9/18 15:12,509
12/9/18 15:12,509
12/9/18 15:12,510
12/9/18 15:12,510
12/9/18 15:12,508
12/9/18 15:12,507
12/9/18 15:12,509
12/9/18 15:12,510
12/9/18 15:12,510
12/9/18 15:12,511
12/9/18 15:12,509
12/9/18 15:12,508
12/9/18 15:12,510
12/9/18 15:12,507
12/9/18 15:12,509
12/9/18 15:12,508
12/9/18 15:12,508
12/9/18 15:12,507
12/9/18 15:12,507
12/9/18 15:12,509
12/9/18 15:12,509
12/9/18 15:12,510
12/9/18 15:12,507
12/9/18 15:12,508
12/9/18 15:12,509
12/9/18 15:12,507
12/9/18 15:12,509
12/9/18 15:12,507
12/9/18 15:12,507
12/9/18 15:12,507
12/9/18 15:12,509
12/9/18 15:12,507
12/9/18 15:12,507
12/9/18 15:12,507
12/9/18 15:12,507
12/9/18 15:12,507
12/9/18 15:12,506
12/9/18 15:12,502
12/9/18 15:12,506
12/9/18 15:12,509
12/9/18 15:12,508
12/9/18 15:12,507
12/9/18 15:12,508
12/9/18 15:12,510
12/9/18 15:12,508
12/9/18 15:12,509
12/9/18 15:12,502
12/9/18 15:12,508
12/9/18 15:12,510
12/9/18 15:12,513
12/9/18 15:12,512
12/9/18 15:12,509
12/9/18 15:12,507
12/9/18 15:12,522
12/9/18 15:12,518
12/9/18 15:12,507
12/9/18 15:12,512
12/9/18 15:12,502
12/9/18 15:12,498
12/9/18 15:12,511
12/9/18 15:12,510
12/9/18 15:12,506
12/9/18 15:12,511
12/9/18 15:12,498
12/9/18 15:12,507
12/9/18 15:12,510
12/9/18 15:12,507
12/9/18 15:12,507
12/9/18 15:12,506
12/9/18 15:12,499
12/9/18 15:12,503
12/9/18 15:12,504
12/9/18 15:12,505
12/9/18 15:12,507
12/9/18 15:12,509
12/9/18 15:12,511
12/9/18 15:12,512
12/9/18 15:12,510
12/9/18 15:12,511
12/9/18 15:12,509
12/9/18 15:12,510
12/9/18 15:12,510
12/9/18 15:12,511
12/9/18 15:12,510
12/9/18 15:12,508
12/9/18 15:12,507
12/9/18 15:12,510
12/9/18 15:12,507
12/9/18 15:12,510
12/9/18 15:12,509
12/9/18 15:12,509
12/9/18 15:12,507
12/9/18 15:12,507
12/9/18 15:12,509
12/9/18 15:12,510
12/9/18 15:12,506
12/9/18 15:12,507
12/9/18 15:12,508
12/9/18 15:12,506
12/9/18 15:12,509
12/9/18 15:12,508
12/9/18 15:12,509
12/9/18 15:12,508
12/9/18 15:12,508
12/9/18 15:12,510
12/9/18 15:12,509
12/9/18 15:12,507
12/9/18 15:12,509
12/9/18 15:12,509
12/9/18 15:12,510
12/9/18 15:12,508
12/9/18 15:12,510
12/9/18 15:12,508
12/9/18 15:12,508
12/9/18 15:12,507
12/9/18 15:12,507
12/9/18 15:12,509
12/9/18 15:12,508
12/9/18 15:12,508
12/9/18 15:12,507
12/9/18 15:12,508
12/9/18 15:12,509
12/9/18 15:12,509
12/9/18 15:12,508
12/9/18 15:12,508
12/9/18 15:12,507
12/9/18 15:12,507
12/9/18 15:12,509
12/9/18 15:12,507
12/9/18 15:12,507
12/9/18 15:12,508
12/9/18 15:12,508
12/9/18 15:12,508
12/9/18 15:12,510
12/9/18 15:12,509
12/9/18 15:12,508
12/9/18 15:12,508
12/9/18 15:12,508
12/9/18 15:12,508
12/9/18 15:12,507
12/9/18 15:12,507
12/9/18 15:12,507
12/9/18 15:12,507
12/9/18 15:12,509
12/9/18 15:12,509
12/9/18 15:12,510
12/9/18 15:12,507
12/9/18 15:12,507
12/9/18 15:12,506
12/9/18 15:12,508
12/9/18 15:12,508
12/9/18 15:12,508
12/9/18 15:12,507
12/9/18 15:12,506
12/9/18 15:12,508
12/9/18 15:12,509
12/9/18 15:12,507
12/9/18 15:12,509
12/9/18 15:12,507
12/9/18 15:12,508
12/9/18 15:12,508
12/9/18 15:12,509
12/9/18 15:12,509
12/9/18 15:12,510
12/9/18 15:12,511
12/9/18 15:12,509
12/9/18 15:12,520
12/9/18 15:12,509
12/9/18 15:12,507
12/9/18 15:12,494
12/9/18 15:12,504
12/9/18 15:12,506
12/9/18 15:12,515
12/9/18 15:12,512
12/9/18 15:12,505
12/9/18 15:12,508
12/9/18 15:12,506
12/9/18 15:12,508
12/9/18 15:12,510
12/9/18 15:12,509
12/9/18 15:12,504
12/9/18 15:12,503
12/9/18 15:12,503
12/9/18 15:12,503
12/9/18 15:12,506
12/9/18 15:12,507
12/9/18 15:12,507
12/9/18 15:12,508
12/9/18 15:12,506
12/9/18 15:12,509
12/9/18 15:12,507
12/9/18 15:12,509
12/9/18 15:12,508
12/9/18 15:12,509
12/9/18 15:12,509
12/9/18 15:12,508
12/9/18 15:12,508
12/9/18 15:12,509
12/9/18 15:12,508
12/9/18 15:12,509
12/9/18 15:12,510
12/9/18 15:12,509
12/9/18 15:12,508
12/9/18 15:12,509
12/9/18 15:12,506
12/9/18 15:12,509
12/9/18 15:12,509
12/9/18 15:12,509
12/9/18 15:12,509
12/9/18 15:12,507
12/9/18 15:12,507
12/9/18 15:12,507
12/9/18 15:12,508
12/9/18 15:12,508
12/9/18 15:12,511
12/9/18 15:12,511
12/9/18 15:12,510
12/9/18 15:12,510
12/9/18 15:12,510
12/9/18 15:12,509
12/9/18 15:12,509
12/9/18 15:12,508
12/9/18 15:12,508
12/9/18 15:12,508
12/9/18 15:12,509
12/9/18 15:12,509
12/9/18 15:12,506
12/9/18 15:12,505
12/9/18 15:12,509
12/9/18 15:12,512
12/9/18 15:12,511
12/9/18 15:12,508
12/9/18 15:12,509
12/9/18 15:12,509
12/9/18 15:12,508
12/9/18 15:12,508
12/9/18 15:12,509
12/9/18 15:12,509
12/9/18 15:12,508
12/9/18 15:12,508
12/9/18 15:12,508
12/9/18 15:12,508
12/9/18 15:12,506
12/9/18 15:12,506
12/9/18 15:12,509
12/9/18 15:12,507
12/9/18 15:12,507
12/9/18 15:12,508
12/9/18 15:12,507
12/9/18 15:12,505
12/9/18 15:12,507
12/9/18 15:12,508
12/9/18 15:12,508
12/9/18 15:12,507
12/9/18 15:12,508
12/9/18 15:12,507
12/9/18 15:12,507
12/9/18 15:12,509
12/9/18 15:12,506
12/9/18 15:12,505
12/9/18 15:12,506
12/9/18 15:12,506
12/9/18 15:12,507
12/9/18 15:12,507
12/9/18 15:12,509
12/9/18 15:12,510
12/9/18 15:12,509
12/9/18 15:12,511
12/9/18 15:12,511
12/9/18 15:12,509
12/9/18 15:12,511
12/9/18 15:12,510
12/9/18 15:12,507
12/9/18 15:12,508
12/9/18 15:12,518
12/9/18 15:12,510
12/9/18 15:12,513
12/9/18 15:12,509
12/9/18 15:12,502
12/9/18 15:12,499
12/9/18 15:12,509
12/9/18 15:12,508
12/9/18 15:12,503
12/9/18 15:12,505
12/9/18 15:12,511
12/9/18 15:12,511
12/9/18 15:12,511
12/9/18 15:12,509
12/9/18 15:12,509
12/9/18 15:12,506
12/9/18 15:12,504
12/9/18 15:12,506
12/9/18 15:12,505
12/9/18 15:12,507
12/9/18 15:12,507
12/9/18 15:12,506
12/9/18 15:12,510
12/9/18 15:12,509
12/9/18 15:12,507
12/9/18 15:12,508
12/9/18 15:12,507
12/9/18 15:12,509
12/9/18 15:12,510
12/9/18 15:12,508
12/9/18 15:12,508
12/9/18 15:12,509
12/9/18 15:12,508
12/9/18 15:12,507
12/9/18 15:12,509
12/9/18 15:12,506
12/9/18 15:12,507
12/9/18 15:12,509
12/9/18 15:12,508
12/9/18 15:12,509
12/9/18 15:12,509
12/9/18 15:12,508
12/9/18 15:12,508
12/9/18 15:12,509
12/9/18 15:12,508
12/9/18 15:12,507
12/9/18 15:12,507
12/9/18 15:12,509
12/9/18 15:12,509
12/9/18 15:12,509
12/9/18 15:12,509
12/9/18 15:12,508
12/9/18 15:12,507
12/9/18 15:12,507
12/9/18 15:12,508
12/9/18 15:12,505
12/9/18 15:12,509
12/9/18 15:12,508
12/9/18 15:12,509
12/9/18 15:12,510
12/9/18 15:12,509
12/9/18 15:12,511
12/9/18 15:12,509
12/9/18 15:12,509
12/9/18 15:12,510
12/9/18 15:12,511
12/9/18 15:12,508
12/9/18 15:12,509
12/9/18 15:12,509
12/9/18 15:12,510
12/9/18 15:12,508
12/9/18 15:12,508
12/9/18 15:12,509
12/9/18 15:12,507
12/9/18 15:12,507
12/9/18 15:12,507
12/9/18 15:12,509
12/9/18 15:12,509
12/9/18 15:12,507
12/9/18 15:12,507
12/9/18 15:12,509
12/9/18 15:12,509
12/9/18 15:12,508
12/9/18 15:12,507
12/9/18 15:12,508
12/9/18 15:12,508
12/9/18 15:12,507
12/9/18 15:12,508
12/9/18 15:12,509
12/9/18 15:12,508
12/9/18 15:12,507
12/9/18 15:12,509
12/9/18 15:12,505
12/9/18 15:12,506
12/9/18 15:12,508
12/9/18 15:12,508
12/9/18 15:12,507
12/9/18 15:12,508
12/9/18 15:12,508
12/9/18 15:12,508
12/9/18 15:12,507
12/9/18 15:12,507
12/9/18 15:12,507
12/9/18 15:12,509
12/9/18 15:12,507
12/9/18 15:12,509
12/9/18 15:12,509
12/9/18 15:12,509
12/9/18 15:12,501
12/9/18 15:12,513
12/9/18 15:12,511
12/9/18 15:21,506
12/9/18 15:21,506
12/9/18 15:21,507
12/9/18 15:21,508
12/9/18 15:21,507
12/9/18 15:21,509
12/9/18 15:21,505
12/9/18 15:21,506
12/9/18 15:21,506
12/9/18 15:21,505
12/9/18 15:21,506
12/9/18 15:21,506
12/9/18 15:21,506
12/9/18 15:21,507
12/9/18 15:21,507
12/9/18 15:21,508
12/9/18 15:21,511
12/9/18 15:21,508
12/9/18 15:21,507
12/9/18 15:21,505
12/9/18 15:21,506
12/9/18 15:21,508
12/9/18 15:21,509
12/9/18 15:21,508
12/9/18 15:21,506
12/9/18 15:21,509
12/9/18 15:21,508
12/9/18 15:21,507
12/9/18 15:21,506
12/9/18 15:21,507
12/9/18 15:21,509
12/9/18 15:21,510
12/9/18 15:21,507
12/9/18 15:21,533
12/9/18 15:21,526
12/9/18 15:21,506
12/9/18 15:21,497
12/9/18 15:21,494
12/9/18 15:21,498
12/9/18 15:21,507
12/9/18 15:21,514
12/9/18 15:21,512
12/9/18 15:21,508
12/9/18 15:21,510
12/9/18 15:21,513
12/9/18 15:21,508
12/9/18 15:21,506
12/9/18 15:21,504
12/9/18 15:21,505
12/9/18 15:21,512
12/9/18 15:21,514
12/9/18 15:21,509
12/9/18 15:21,508
12/9/18 15:21,506
12/9/18 15:21,506
12/9/18 15:21,505
12/9/18 15:21,502
12/9/18 15:21,504
12/9/18 15:21,506
12/9/18 15:21,505
12/9/18 15:21,507
12/9/18 15:21,506
12/9/18 15:21,506
12/9/18 15:21,506
12/9/18 15:21,507
12/9/18 15:21,509
12/9/18 15:21,509
12/9/18 15:21,509
12/9/18 15:21,508
12/9/18 15:21,508
12/9/18 15:21,510
12/9/18 15:21,508
12/9/18 15:21,509
12/9/18 15:21,508
12/9/18 15:21,513
12/9/18 15:21,508
12/9/18 15:21,508
12/9/18 15:21,509
12/9/18 15:21,510
12/9/18 15:21,508
12/9/18 15:21,508
12/9/18 15:21,510
12/9/18 15:21,511
12/9/18 15:21,507
12/9/18 15:21,510
12/9/18 15:21,510
12/9/18 15:21,510
12/9/18 15:21,510
12/9/18 15:21,509
12/9/18 15:21,509
12/9/18 15:21,510
12/9/18 15:21,507
12/9/18 15:21,509
12/9/18 15:21,510
12/9/18 15:21,508
12/9/18 15:21,512
12/9/18 15:21,507
12/9/18 15:21,509
12/9/18 15:21,508
12/9/18 15:21,508
12/9/18 15:21,509
12/9/18 15:21,509
12/9/18 15:21,508
12/9/18 15:21,508
12/9/18 15:21,508
12/9/18 15:21,508
12/9/18 15:21,508
12/9/18 15:21,510
12/9/18 15:21,506
12/9/18 15:21,508
12/9/18 15:21,507
12/9/18 15:21,506
12/9/18 15:21,508
12/9/18 15:21,507
12/9/18 15:21,509
12/9/18 15:21,507
12/9/18 15:21,508
12/9/18 15:21,508
12/9/18 15:21,507
12/9/18 15:21,509
12/9/18 15:21,508
12/9/18 15:21,508
12/9/18 15:21,507
12/9/18 15:21,507
12/9/18 15:21,508
12/9/18 15:21,507
12/9/18 15:21,506
12/9/18 15:21,503
12/9/18 15:21,507
12/9/18 15:21,508
12/9/18 15:21,509
12/9/18 15:21,509
12/9/18 15:21,510
12/9/18 15:21,508
12/9/18 15:21,508
12/9/18 15:21,509
12/9/18 15:21,507
12/9/18 15:21,507
12/9/18 15:21,508
12/9/18 15:21,508
12/9/18 15:21,509
12/9/18 15:21,509
12/9/18 15:21,508
12/9/18 15:21,507
12/9/18 15:21,507
12/9/18 15:21,508
12/9/18 15:21,509
12/9/18 15:21,508
12/9/18 15:21,506
12/9/18 15:21,509
12/9/18 15:21,521
12/9/18 15:21,519
12/9/18 15:21,515
12/9/18 15:21,504
12/9/18 15:21,496
12/9/18 15:21,498
12/9/18 15:21,507
12/9/18 15:21,509
12/9/18 15:21,514
12/9/18 15:21,510
12/9/18 15:21,511
12/9/18 15:21,507
12/9/18 15:21,512
12/9/18 15:21,510
12/9/18 15:21,504
12/9/18 15:21,504
12/9/18 15:21,505
12/9/18 15:21,505
12/9/18 15:21,504
12/9/18 15:21,507
12/9/18 15:21,509
12/9/18 15:21,507
12/9/18 15:21,506
12/9/18 15:21,505
12/9/18 15:21,507
12/9/18 15:21,508
12/9/18 15:21,509
12/9/18 15:21,508
12/9/18 15:21,507
12/9/18 15:21,507
12/9/18 15:21,509
12/9/18 15:21,509
12/9/18 15:21,509
12/9/18 15:21,509
12/9/18 15:21,508
12/9/18 15:21,510
12/9/18 15:21,509
12/9/18 15:21,507
12/9/18 15:21,508
12/9/18 15:21,508
12/9/18 15:21,510
12/9/18 15:21,509
12/9/18 15:21,510
12/9/18 15:21,507
12/9/18 15:21,511
12/9/18 15:21,509
12/9/18 15:21,509
12/9/18 15:21,508
12/9/18 15:21,509
12/9/18 15:21,509
12/9/18 15:21,509
12/9/18 15:21,509
12/9/18 15:21,510
12/9/18 15:21,508
12/9/18 15:21,511
12/9/18 15:21,510
12/9/18 15:21,509
12/9/18 15:21,509
12/9/18 15:21,509
12/9/18 15:21,510
12/9/18 15:21,509
12/9/18 15:21,507
12/9/18 15:21,510
12/9/18 15:21,509
12/9/18 15:21,509
12/9/18 15:21,508
12/9/18 15:21,508
12/9/18 15:21,509
12/9/18 15:21,508
12/9/18 15:21,509
12/9/18 15:21,510
12/9/18 15:21,508
12/9/18 15:21,508
12/9/18 15:21,508
12/9/18 15:21,507
12/9/18 15:21,510
12/9/18 15:21,507
12/9/18 15:21,507
12/9/18 15:21,509
12/9/18 15:21,507
12/9/18 15:21,509
12/9/18 15:21,507
12/9/18 15:21,507
12/9/18 15:21,508
12/9/18 15:21,509
12/9/18 15:21,506
12/9/18 15:21,509
12/9/18 15:21,507
12/9/18 15:21,508
12/9/18 15:21,506
12/9/18 15:21,507
12/9/18 15:21,509
12/9/18 15:21,506
12/9/18 15:21,507
12/9/18 15:21,507
12/9/18 15:21,508
12/9/18 15:21,508
12/9/18 15:21,509
12/9/18 15:21,508
12/9/18 15:21,507
12/9/18 15:21,509
12/9/18 15:21,509
12/9/18 15:21,508
12/9/18 15:21,508
12/9/18 15:21,510
12/9/18 15:21,508
12/9/18 15:21,508
12/9/18 15:21,508
12/9/18 15:21,509
12/9/18 15:21,509
12/9/18 15:21,507
12/9/18 15:21,526
12/9/18 15:21,518
12/9/18 15:21,508
12/9/18 15:21,509
12/9/18 15:21,497
12/9/18 15:21,499
12/9/18 15:21,510
12/9/18 15:21,507
12/9/18 15:21,513
12/9/18 15:21,513
12/9/18 15:21,509
12/9/18 15:21,509
12/9/18 15:21,504
12/9/18 15:21,508
12/9/18 15:21,509
12/9/18 15:21,506
12/9/18 15:21,508
12/9/18 15:21,505
12/9/18 15:21,505
12/9/18 15:21,508
12/9/18 15:21,506
12/9/18 15:21,505
12/9/18 15:21,506
12/9/18 15:21,506
12/9/18 15:21,507
12/9/18 15:21,508
12/9/18 15:21,507
12/9/18 15:21,506
12/9/18 15:21,507
12/9/18 15:21,509
12/9/18 15:21,509
12/9/18 15:21,507
12/9/18 15:21,509
12/9/18 15:21,508
12/9/18 15:21,509
12/9/18 15:21,509
12/9/18 15:21,508
12/9/18 15:21,508
12/9/18 15:21,509
12/9/18 15:21,510
12/9/18 15:21,509
12/9/18 15:21,508
12/9/18 15:21,508
12/9/18 15:21,510
12/9/18 15:21,511
12/9/18 15:21,510
12/9/18 15:21,510
12/9/18 15:21,511
12/9/18 15:21,509
12/9/18 15:21,509
12/9/18 15:21,510
12/9/18 15:21,510
12/9/18 15:21,508
12/9/18 15:21,509
12/9/18 15:21,508
12/9/18 15:21,509
12/9/18 15:21,506
12/9/18 15:21,508
12/9/18 15:21,510
12/9/18 15:21,507
12/9/18 15:21,509
12/9/18 15:21,509
12/9/18 15:21,508
12/9/18 15:21,508
12/9/18 15:21,508
12/9/18 15:21,509
12/9/18 15:21,510
12/9/18 15:21,509
12/9/18 15:21,510
12/9/18 15:21,505
12/9/18 15:21,509
12/9/18 15:21,509
12/9/18 15:21,508
12/9/18 15:21,508
12/9/18 15:21,509
12/9/18 15:21,509
12/9/18 15:21,509
12/9/18 15:21,508
12/9/18 15:21,508
12/9/18 15:21,508
12/9/18 15:21,508
12/9/18 15:21,508
12/9/18 15:21,509
12/9/18 15:21,508
12/9/18 15:21,509
12/9/18 15:21,508
12/9/18 15:21,505
12/9/18 15:21,507
12/9/18 15:21,507
12/9/18 15:21,506
12/9/18 15:21,508
12/9/18 15:21,507
12/9/18 15:21,509
12/9/18 15:21,506
12/9/18 15:21,508
12/9/18 15:21,508
12/9/18 15:21,508
12/9/18 15:21,506
12/9/18 15:21,507
12/9/18 15:21,508
12/9/18 15:21,509
12/9/18 15:21,509
12/9/18 15:21,508
12/9/18 15:21,508
12/9/18 15:21,508
12/9/18 15:21,509
12/9/18 15:21,509
12/9/18 15:21,509
12/9/18 15:21,506
12/9/18 15:21,509
12/9/18 15:21,509
12/9/18 15:21,507
12/9/18 15:21,508
12/9/18 15:21,509
12/9/18 15:21,509
12/9/18 15:21,527
12/9/18 15:21,520
12/9/18 15:21,503
12/9/18 15:21,504
12/9/18 15:21,500
12/9/18 15:21,503
12/9/18 15:21,510
12/9/18 15:21,509
12/9/18 15:21,514
12/9/18 15:21,507
12/9/18 15:21,505
12/9/18 15:21,510
12/9/18 15:21,509
12/9/18 15:21,509
12/9/18 15:21,503
12/9/18 15:21,507
12/9/18 15:21,512
12/9/18 15:21,510
12/9/18 15:21,509
12/9/18 15:21,507
12/9/18 15:21,505
12/9/18 15:21,506
12/9/18 15:21,505
12/9/18 15:21,504
12/9/18 15:21,504
12/9/18 15:21,504
12/9/18 15:21,504
12/9/18 15:21,509
12/9/18 15:21,506
12/9/18 15:21,504
12/9/18 15:21,506
12/9/18 15:21,507
12/9/18 15:21,506
12/9/18 15:21,506
12/9/18 15:21,509
12/9/18 15:21,506
12/9/18 15:21,508
12/9/18 15:21,508
12/9/18 15:21,509
12/9/18 15:21,509
12/9/18 15:21,511
12/9/18 15:21,508
12/9/18 15:21,509
12/9/18 15:21,510
12/9/18 15:21,509
12/9/18 15:21,510
12/9/18 15:21,510
12/9/18 15:21,509
12/9/18 15:21,510
12/9/18 15:21,511
12/9/18 15:21,509
12/9/18 15:21,511
12/9/18 15:21,509
12/9/18 15:21,511
12/9/18 15:21,509
12/9/18 15:21,508
12/9/18 15:21,511
12/9/18 15:21,509
12/9/18 15:21,510
12/9/18 15:21,509
12/9/18 15:21,509
12/9/18 15:21,509
12/9/18 15:21,509
12/9/18 15:21,508
12/9/18 15:21,509
12/9/18 15:21,509
12/9/18 15:21,509
12/9/18 15:21,509
12/9/18 15:21,509
12/9/18 15:21,507
12/9/18 15:21,509
12/9/18 15:21,509
12/9/18 15:21,507
12/9/18 15:21,510
12/9/18 15:21,508
12/9/18 15:21,508
12/9/18 15:21,508
12/9/18 15:21,510
12/9/18 15:21,508
12/9/18 15:21,509
12/9/18 15:21,507
12/9/18 15:21,508
12/9/18 15:21,509
12/9/18 15:21,508
12/9/18 15:21,505
12/9/18 15:21,506
12/9/18 15:21,507
12/9/18 15:21,507
12/9/18 15:21,509
12/9/18 15:21,507
12/9/18 15:21,507
12/9/18 15:21,506
12/9/18 15:21,507
12/9/18 15:21,507
12/9/18 15:21,507
12/9/18 15:21,508
12/9/18 15:21,508
12/9/18 15:21,508
12/9/18 15:21,508
12/9/18 15:21,508
12/9/18 15:21,508
12/9/18 15:21,509
12/9/18 15:21,508
12/9/18 15:21,508
12/9/18 15:21,509
12/9/18 15:21,508
12/9/18 15:21,508
12/9/18 15:21,508
12/9/18 15:21,508
12/9/18 15:21,508
12/9/18 15:21,508
12/9/18 15:21,509
12/9/18 15:21,508
12/9/18 15:21,508
12/9/18 15:21,509
12/9/18 15:21,521
12/9/18 15:21,520
12/9/18 15:21,508
12/9/18 15:21,501
12/9/18 15:21,497
12/9/18 15:21,505
12/9/18 15:21,507
12/9/18 15:21,511
12/9/18 15:21,515
12/9/18 15:21,510
12/9/18 15:21,504
12/9/18 15:21,506
12/9/18 15:21,506
12/9/18 15:21,502
12/9/18 15:21,503
12/9/18 15:21,504
12/9/18 15:21,505
12/9/18 15:21,506
12/9/18 15:21,508
12/9/18 15:21,509
12/9/18 15:21,507
12/9/18 15:21,506
12/9/18 15:21,510
12/9/18 15:21,509
12/9/18 15:21,507
12/9/18 15:21,509
12/9/18 15:21,508
12/9/18 15:21,507
12/9/18 15:21,508
12/9/18 15:21,509
12/9/18 15:21,509
12/9/18 15:21,509
12/9/18 15:21,509
12/9/18 15:21,509
12/9/18 15:21,509
12/9/18 15:21,509
12/9/18 15:21,510
12/9/18 15:21,509
12/9/18 15:21,507
12/9/18 15:21,509
12/9/18 15:21,508
12/9/18 15:21,509
12/9/18 15:21,508
12/9/18 15:21,510
12/9/18 15:21,510
12/9/18 15:21,509
12/9/18 15:21,509
12/9/18 15:21,509
12/9/18 15:21,508
12/9/18 15:21,510
12/9/18 15:21,509
12/9/18 15:21,510
12/9/18 15:21,508
12/9/18 15:21,509
12/9/18 15:21,508
12/9/18 15:21,509
12/9/18 15:21,509
12/9/18 15:21,509
12/9/18 15:21,508
12/9/18 15:21,510
12/9/18 15:21,508
12/9/18 15:21,507
12/9/18 15:21,510
12/9/18 15:21,508
12/9/18 15:21,508
12/9/18 15:21,508
12/9/18 15:21,507
12/9/18 15:21,508
12/9/18 15:21,508
12/9/18 15:21,509
12/9/18 15:21,509
12/9/18 15:21,508
12/9/18 15:21,508
12/9/18 15:21,508
12/9/18 15:21,510
12/9/18 15:21,507
12/9/18 15:21,509
12/9/18 15:21,508
12/9/18 15:21,506
12/9/18 15:21,508
12/9/18 15:21,509
12/9/18 15:21,506
12/9/18 15:21,508
12/9/18 15:21,507
12/9/18 15:21,508
12/9/18 15:21,507
12/9/18 15:21,507
12/9/18 15:21,507
12/9/18 15:21,507
12/9/18 15:21,509
12/9/18 15:21,508
12/9/18 15:21,509
12/9/18 15:21,509
12/9/18 15:21,505
12/9/18 15:21,510
12/9/18 15:21,509
12/9/18 15:21,507
12/9/18 15:21,508
12/9/18 15:21,508
12/9/18 15:21,508
12/9/18 15:21,509
12/9/18 15:21,507
12/9/18 15:21,507
12/9/18 15:21,508
12/9/18 15:21,507
12/9/18 15:21,508
12/9/18 15:21,508
12/9/18 15:21,508
12/9/18 15:21,505
12/9/18 15:30,505
12/9/18 15:30,506
12/9/18 15:30,507
12/9/18 15:30,506
12/9/18 15:30,506
12/9/18 15:30,507
12/9/18 15:30,507
12/9/18 15:30,509
12/9/18 15:30,508
12/9/18 15:30,507
12/9/18 15:30,508
12/9/18 15:30,507
12/9/18 15:30,507
12/9/18 15:30,509
12/9/18 15:30,506
12/9/18 15:30,506
12/9/18 15:30,506
12/9/18 15:30,507
12/9/18 15:30,507
12/9/18 15:30,506
12/9/18 15:30,509
12/9/18 15:30,508
12/9/18 15:30,507
12/9/18 15:30,505
12/9/18 15:30,507
12/9/18 15:30,507
12/9/18 15:30,508
12/9/18 15:30,507
12/9/18 15:30,507
12/9/18 15:30,508
12/9/18 15:30,508
12/9/18 15:30,508
12/9/18 15:30,509
12/9/18 15:30,508
12/9/18 15:30,508
12/9/18 15:30,509
12/9/18 15:30,509
12/9/18 15:30,510
12/9/18 15:30,507
12/9/18 15:30,511
12/9/18 15:30,509
12/9/18 15:30,507
12/9/18 15:30,507
12/9/18 15:30,506
12/9/18 15:30,507
12/9/18 15:30,509
12/9/18 15:30,508
12/9/18 15:30,507
12/9/18 15:30,507
12/9/18 15:30,531
12/9/18 15:30,520
12/9/18 15:30,509
12/9/18 15:30,500
12/9/18 15:30,496
12/9/18 15:30,503
12/9/18 15:30,510
12/9/18 15:30,513
12/9/18 15:30,511
12/9/18 15:30,510
12/9/18 15:30,503
12/9/18 15:30,508
12/9/18 15:30,515
12/9/18 15:30,508
12/9/18 15:30,503
12/9/18 15:30,508
12/9/18 15:30,504
12/9/18 15:30,504
12/9/18 15:30,504
12/9/18 15:30,505
12/9/18 15:30,506
12/9/18 15:30,505
12/9/18 15:30,507
12/9/18 15:30,509
12/9/18 15:30,509
12/9/18 15:30,507
12/9/18 15:30,508
12/9/18 15:30,507
12/9/18 15:30,506
12/9/18 15:30,507
12/9/18 15:30,509
12/9/18 15:30,509
12/9/18 15:30,509
12/9/18 15:30,508
12/9/18 15:30,508
12/9/18 15:30,509
12/9/18 15:30,508
12/9/18 15:30,509
12/9/18 15:30,509
12/9/18 15:30,509
12/9/18 15:30,509
12/9/18 15:30,510
12/9/18 15:30,509
12/9/18 15:30,510
12/9/18 15:30,509
12/9/18 15:30,510
12/9/18 15:30,509
12/9/18 15:30,510
12/9/18 15:30,509
12/9/18 15:30,509
12/9/18 15:30,508
12/9/18 15:30,509
12/9/18 15:30,510
12/9/18 15:30,509
12/9/18 15:30,507
12/9/18 15:30,509
12/9/18 15:30,509
12/9/18 15:30,510
12/9/18 15:30,509
12/9/18 15:30,509
12/9/18 15:30,509
12/9/18 15:30,508
12/9/18 15:30,509
12/9/18 15:30,509
12/9/18 15:30,508
12/9/18 15:30,509
12/9/18 15:30,509
12/9/18 15:30,508
12/9/18 15:30,507
12/9/18 15:30,508
12/9/18 15:30,509
12/9/18 15:30,508
12/9/18 15:30,507
12/9/18 15:30,509
12/9/18 15:30,510
12/9/18 15:30,507
12/9/18 15:30,507
12/9/18 15:30,507
12/9/18 15:30,509
12/9/18 15:30,509
12/9/18 15:30,508
12/9/18 15:30,509
12/9/18 15:30,509
12/9/18 15:30,508
12/9/18 15:30,508
12/9/18 15:30,509
12/9/18 15:30,507
12/9/18 15:30,508
12/9/18 15:30,508
12/9/18 15:30,509
12/9/18 15:30,507
12/9/18 15:30,507
12/9/18 15:30,506
12/9/18 15:30,509
12/9/18 15:30,507
12/9/18 15:30,504
12/9/18 15:30,505
12/9/18 15:30,507
12/9/18 15:30,507
12/9/18 15:30,507
12/9/18 15:30,507
12/9/18 15:30,509
12/9/18 15:30,509
12/9/18 15:30,508
12/9/18 15:30,509
12/9/18 15:30,507
12/9/18 15:30,508
12/9/18 15:30,510
12/9/18 15:30,508
12/9/18 15:30,507
12/9/18 15:30,509
12/9/18 15:30,508
12/9/18 15:30,510
12/9/18 15:30,507
12/9/18 15:30,507
12/9/18 15:30,508
12/9/18 15:30,510
12/9/18 15:30,509
12/9/18 15:30,509
12/9/18 15:30,508
12/9/18 15:30,509
12/9/18 15:30,507
12/9/18 15:30,508
12/9/18 15:30,510
12/9/18 15:30,522
12/9/18 15:30,522
12/9/18 15:30,502
12/9/18 15:30,501
12/9/18 15:30,495
12/9/18 15:30,506
12/9/18 15:30,511
12/9/18 15:30,513
12/9/18 15:30,515
12/9/18 15:30,506
12/9/18 15:30,506
12/9/18 15:30,505
12/9/18 15:30,505
12/9/18 15:30,508
12/9/18 15:30,503
12/9/18 15:30,501
12/9/18 15:30,503
12/9/18 15:30,506
12/9/18 15:30,506
12/9/18 15:30,507
12/9/18 15:30,508
12/9/18 15:30,509
12/9/18 15:30,508
12/9/18 15:30,509
12/9/18 15:30,508
12/9/18 15:30,509
12/9/18 15:30,508
12/9/18 15:30,509
12/9/18 15:30,507
12/9/18 15:30,509
12/9/18 15:30,509
12/9/18 15:30,508
12/9/18 15:30,508
12/9/18 15:30,509
12/9/18 15:30,510
12/9/18 15:30,509
12/9/18 15:30,508
12/9/18 15:30,508
12/9/18 15:30,510
12/9/18 15:30,509
12/9/18 15:30,509
12/9/18 15:30,509
12/9/18 15:30,509
12/9/18 15:30,508
12/9/18 15:30,509
12/9/18 15:30,509
12/9/18 15:30,509
12/9/18 15:30,509
12/9/18 15:30,509
12/9/18 15:30,509
12/9/18 15:30,509
12/9/18 15:30,510
12/9/18 15:30,509
12/9/18 15:30,509
12/9/18 15:30,510
12/9/18 15:30,509
12/9/18 15:30,509
12/9/18 15:30,506
12/9/18 15:30,509
12/9/18 15:30,508
12/9/18 15:30,509
12/9/18 15:30,509
12/9/18 15:30,507
12/9/18 15:30,509
12/9/18 15:30,509
12/9/18 15:30,509
12/9/18 15:30,511
12/9/18 15:30,508
12/9/18 15:30,508
12/9/18 15:30,509
12/9/18 15:30,509
12/9/18 15:30,508
12/9/18 15:30,509
12/9/18 15:30,510
12/9/18 15:30,507
12/9/18 15:30,507
12/9/18 15:30,508
12/9/18 15:30,508
12/9/18 15:30,508
12/9/18 15:30,509
12/9/18 15:30,508
12/9/18 15:30,508
12/9/18 15:30,507
12/9/18 15:30,508
12/9/18 15:30,507
12/9/18 15:30,509
12/9/18 15:30,507
12/9/18 15:30,507
12/9/18 15:30,508
12/9/18 15:30,507
12/9/18 15:30,506
12/9/18 15:30,507
12/9/18 15:30,507
12/9/18 15:30,508
12/9/18 15:30,508
12/9/18 15:30,507
12/9/18 15:30,506
12/9/18 15:30,508
12/9/18 15:30,509
12/9/18 15:30,509
12/9/18 15:30,508
12/9/18 15:30,508
12/9/18 15:30,508
12/9/18 15:30,510
12/9/18 15:30,508
12/9/18 15:30,508
12/9/18 15:30,508
12/9/18 15:30,509
12/9/18 15:30,509
12/9/18 15:30,509
12/9/18 15:30,507
12/9/18 15:30,507
12/9/18 15:30,506
12/9/18 15:30,505
12/9/18 15:30,508
12/9/18 15:30,510
12/9/18 15:30,510
12/9/18 15:30,511
12/9/18 15:30,513
12/9/18 15:30,519
12/9/18 15:30,505
12/9/18 15:30,499
12/9/18 15:30,494
12/9/18 15:30,509
12/9/18 15:30,514
12/9/18 15:30,509
12/9/18 15:30,512
12/9/18 15:30,510
12/9/18 15:30,508
12/9/18 15:30,514
12/9/18 15:30,508
12/9/18 15:30,503
12/9/18 15:30,504
12/9/18 15:30,505
12/9/18 15:30,505
12/9/18 15:30,507
12/9/18 15:30,508
12/9/18 15:30,507
12/9/18 15:30,506
12/9/18 15:30,507
12/9/18 15:30,507
12/9/18 15:30,506
12/9/18 15:30,507
12/9/18 15:30,508
12/9/18 15:30,508
12/9/18 15:30,509
12/9/18 15:30,507
12/9/18 15:30,508
12/9/18 15:30,507
12/9/18 15:30,507
12/9/18 15:30,507
12/9/18 15:30,507
12/9/18 15:30,509
12/9/18 15:30,508
12/9/18 15:30,508
12/9/18 15:30,509
12/9/18 15:30,507
12/9/18 15:30,508
12/9/18 15:30,507
12/9/18 15:30,510
12/9/18 15:30,509
12/9/18 15:30,510
12/9/18 15:30,508
12/9/18 15:30,510
12/9/18 15:30,509
12/9/18 15:30,510
12/9/18 15:30,510
12/9/18 15:30,510
12/9/18 15:30,510
12/9/18 15:30,509
12/9/18 15:30,508
12/9/18 15:30,510
12/9/18 15:30,508
12/9/18 15:30,509
12/9/18 15:30,509
12/9/18 15:30,510
12/9/18 15:30,509
12/9/18 15:30,508
12/9/18 15:30,508
12/9/18 15:30,508
12/9/18 15:30,510
12/9/18 15:30,508
12/9/18 15:30,509
12/9/18 15:30,509
12/9/18 15:30,509
12/9/18 15:30,508
12/9/18 15:30,509
12/9/18 15:30,509
12/9/18 15:30,509
12/9/18 15:30,508
12/9/18 15:30,509
12/9/18 15:30,508
12/9/18 15:30,508
12/9/18 15:30,507
12/9/18 15:30,508
12/9/18 15:30,508
12/9/18 15:30,508
12/9/18 15:30,508
12/9/18 15:30,507
12/9/18 15:30,508
12/9/18 15:30,506
12/9/18 15:30,508
12/9/18 15:30,507
12/9/18 15:30,509
12/9/18 15:30,506
12/9/18 15:30,507
12/9/18 15:30,508
12/9/18 15:30,506
12/9/18 15:30,507
12/9/18 15:30,507
12/9/18 15:30,510
12/9/18 15:30,507
12/9/18 15:30,508
12/9/18 15:30,507
12/9/18 15:30,507
12/9/18 15:30,507
12/9/18 15:30,508
12/9/18 15:30,509
12/9/18 15:30,507
12/9/18 15:30,507
12/9/18 15:30,507
12/9/18 15:30,507
12/9/18 15:30,509
12/9/18 15:30,508
12/9/18 15:30,509
12/9/18 15:30,508
12/9/18 15:30,508
12/9/18 15:30,508
12/9/18 15:30,508
12/9/18 15:30,509
12/9/18 15:30,508
12/9/18 15:30,509
12/9/18 15:30,505
12/9/18 15:30,513
12/9/18 15:30,521
12/9/18 15:30,517
12/9/18 15:30,505
12/9/18 15:30,494
12/9/18 15:30,493
12/9/18 15:30,507
12/9/18 15:30,509
12/9/18 15:30,513
12/9/18 15:30,513
12/9/18 15:30,511
12/9/18 15:30,505
12/9/18 15:30,504
12/9/18 15:30,509
12/9/18 15:30,509
12/9/18 15:30,505
12/9/18 15:30,505
12/9/18 15:30,506
12/9/18 15:30,505
12/9/18 15:30,506
12/9/18 15:30,508
12/9/18 15:30,507
12/9/18 15:30,507
12/9/18 15:30,507
12/9/18 15:30,508
12/9/18 15:30,506
12/9/18 15:30,506
12/9/18 15:30,509
12/9/18 15:30,509
12/9/18 15:30,508
12/9/18 15:30,509
12/9/18 15:30,507
12/9/18 15:30,509
12/9/18 15:30,509
12/9/18 15:30,507
12/9/18 15:30,509
12/9/18 15:30,508
12/9/18 15:30,509
12/9/18 15:30,509
12/9/18 15:30,508
12/9/18 15:30,508
12/9/18 15:30,509
12/9/18 15:30,508
12/9/18 15:30,510
12/9/18 15:30,508
12/9/18 15:30,510
12/9/18 15:30,509
12/9/18 15:30,511
12/9/18 15:30,509
12/9/18 15:30,510
12/9/18 15:30,508
12/9/18 15:30,509
12/9/18 15:30,510
12/9/18 15:30,510
12/9/18 15:30,509
12/9/18 15:30,511
12/9/18 15:30,506
12/9/18 15:30,507
12/9/18 15:30,510
12/9/18 15:30,507
12/9/18 15:30,509
12/9/18 15:30,508
12/9/18 15:30,509
12/9/18 15:30,509
12/9/18 15:30,509
12/9/18 15:30,509
12/9/18 15:30,510
12/9/18 15:30,509
12/9/18 15:30,509
12/9/18 15:30,507
12/9/18 15:30,509
12/9/18 15:30,509
12/9/18 15:30,508
12/9/18 15:30,507
12/9/18 15:30,509
12/9/18 15:30,510
12/9/18 15:30,509
12/9/18 15:30,509
12/9/18 15:30,509
12/9/18 15:30,509
12/9/18 15:30,509
12/9/18 15:30,507
12/9/18 15:30,508
12/9/18 15:30,508
12/9/18 15:30,506
12/9/18 15:30,506
12/9/18 15:30,505
12/9/18 15:30,507
12/9/18 15:30,507
12/9/18 15:30,507
12/9/18 15:30,506
12/9/18 15:30,507
12/9/18 15:30,506
12/9/18 15:30,505
12/9/18 15:30,506
12/9/18 15:30,506
12/9/18 15:30,507
12/9/18 15:30,506
12/9/18 15:30,509
12/9/18 15:30,506
12/9/18 15:30,508
12/9/18 15:30,507
12/9/18 15:30,508
12/9/18 15:30,509
12/9/18 15:30,508
12/9/18 15:30,508
12/9/18 15:30,508
12/9/18 15:30,510
12/9/18 15:30,509
12/9/18 15:30,508
12/9/18 15:30,509
12/9/18 15:30,508
12/9/18 15:30,509
12/9/18 15:30,507
12/9/18 15:30,508
12/9/18 15:30,508
12/9/18 15:30,508
12/9/18 15:30,508
12/9/18 15:30,508
12/9/18 15:30,524
12/9/18 15:30,521
12/9/18 15:30,510
12/9/18 15:30,503
12/9/18 15:30,494
12/9/18 15:30,503
12/9/18 15:30,507
12/9/18 15:30,510
12/9/18 15:30,514
12/9/18 15:30,510
12/9/18 15:30,506
12/9/18 15:30,509
12/9/18 15:30,507
12/9/18 15:30,506
12/9/18 15:30,511
12/9/18 15:30,509
12/9/18 15:30,505
12/9/18 15:30,500
12/9/18 15:30,503
12/9/18 15:30,502
12/9/18 15:30,503
12/9/18 15:30,506
12/9/18 15:30,507
12/9/18 15:30,507
12/9/18 15:30,507
12/9/18 15:30,509
12/9/18 15:30,505
12/9/18 15:30,511
12/9/18 15:30,509
12/9/18 15:30,507
12/9/18 15:30,511
12/9/18 15:30,509
12/9/18 15:30,508
12/9/18 15:30,507
12/9/18 15:30,507
12/9/18 15:30,509
12/9/18 15:30,510
12/9/18 15:30,510
12/9/18 15:30,510
12/9/18 15:30,508
12/9/18 15:30,509
12/9/18 15:30,510
12/9/18 15:30,510
12/9/18 15:30,508
12/9/18 15:30,510
12/9/18 15:30,509
12/9/18 15:30,508
12/9/18 15:30,510
12/9/18 15:30,509
12/9/18 15:30,509
12/9/18 15:30,509
12/9/18 15:30,508
12/9/18 15:30,510
12/9/18 15:30,509
12/9/18 15:30,509
12/9/18 15:30,510
12/9/18 15:30,508
12/9/18 15:30,511
12/9/18 15:30,509
12/9/18 15:30,509
12/9/18 15:30,509
12/9/18 15:30,508
12/9/18 15:30,509
12/9/18 15:30,511
12/9/18 15:30,508
12/9/18 15:30,510
12/9/18 15:30,508
12/9/18 15:30,509
12/9/18 15:30,509
12/9/18 15:30,508
12/9/18 15:30,509
12/9/18 15:30,506
12/9/18 15:30,509
12/9/18 15:30,508
12/9/18 15:30,507
12/9/18 15:39,505
12/9/18 15:39,505
12/9/18 15:39,506
12/9/18 15:39,507
12/9/18 15:39,510
12/9/18 15:39,510
12/9/18 15:39,507
12/9/18 15:39,507
12/9/18 15:39,506
12/9/18 15:39,508
12/9/18 15:39,508
12/9/18 15:39,509
12/9/18 15:39,508
12/9/18 15:39,509
12/9/18 15:39,509
12/9/18 15:39,508
12/9/18 15:39,509
12/9/18 15:39,507
12/9/18 15:39,508
12/9/18 15:39,507
12/9/18 15:39,506
12/9/18 15:39,508
12/9/18 15:39,506
12/9/18 15:39,506
12/9/18 15:39,506
12/9/18 15:39,508
12/9/18 15:39,506
12/9/18 15:39,508
12/9/18 15:39,506
12/9/18 15:39,507
12/9/18 15:39,507
12/9/18 15:39,509
12/9/18 15:39,507
12/9/18 15:39,508
12/9/18 15:39,508
12/9/18 15:39,507
12/9/18 15:39,510
12/9/18 15:39,508
12/9/18 15:39,507
12/9/18 15:39,508
12/9/18 15:39,509
12/9/18 15:39,508
12/9/18 15:39,508
12/9/18 15:39,506
12/9/18 15:39,508
12/9/18 15:39,507
12/9/18 15:39,509
12/9/18 15:39,509
12/9/18 15:39,508
12/9/18 15:39,510
12/9/18 15:39,508
12/9/18 15:39,508
12/9/18 15:39,509
12/9/18 15:39,508
12/9/18 15:39,508
12/9/18 15:39,521
12/9/18 15:39,521
12/9/18 15:39,510
12/9/18 15:39,506
12/9/18 15:39,501
12/9/18 15:39,495
12/9/18 15:39,514
12/9/18 15:39,505
12/9/18 15:39,504
12/9/18 15:39,507
12/9/18 15:39,507
12/9/18 15:39,512
12/9/18 15:39,508
12/9/18 15:39,505
12/9/18 15:39,505
12/9/18 15:39,503
12/9/18 15:39,505
12/9/18 15:39,506
12/9/18 15:39,508
12/9/18 15:39,512
12/9/18 15:39,507
12/9/18 15:39,513
12/9/18 15:39,508
12/9/18 15:39,508
12/9/18 15:39,505
12/9/18 15:39,508
12/9/18 15:39,510
12/9/18 15:39,508
12/9/18 15:39,507
12/9/18 15:39,510
12/9/18 15:39,510
12/9/18 15:39,509
12/9/18 15:39,510
12/9/18 15:39,509
12/9/18 15:39,509
12/9/18 15:39,509
12/9/18 15:39,509
12/9/18 15:39,509
12/9/18 15:39,509
12/9/18 15:39,507
12/9/18 15:39,507
12/9/18 15:39,510
12/9/18 15:39,509
12/9/18 15:39,510
12/9/18 15:39,508
12/9/18 15:39,509
12/9/18 15:39,509
12/9/18 15:39,509
12/9/18 15:39,509
12/9/18 15:39,508
12/9/18 15:39,509
12/9/18 15:39,508
12/9/18 15:39,511
12/9/18 15:39,510
12/9/18 15:39,508
12/9/18 15:39,509
12/9/18 15:39,510
12/9/18 15:39,508
12/9/18 15:39,508
12/9/18 15:39,507
12/9/18 15:39,507
12/9/18 15:39,508
12/9/18 15:39,507
12/9/18 15:39,508
12/9/18 15:39,507
12/9/18 15:39,508
12/9/18 15:39,509
12/9/18 15:39,509
12/9/18 15:39,510
12/9/18 15:39,509
12/9/18 15:39,510
12/9/18 15:39,509
12/9/18 15:39,510
12/9/18 15:39,510
12/9/18 15:39,508
12/9/18 15:39,510
12/9/18 15:39,508
12/9/18 15:39,508
12/9/18 15:39,507
12/9/18 15:39,507
12/9/18 15:39,508
12/9/18 15:39,508
12/9/18 15:39,507
12/9/18 15:39,509
12/9/18 15:39,508
12/9/18 15:39,506
12/9/18 15:39,508
12/9/18 15:39,508
12/9/18 15:39,508
12/9/18 15:39,507
12/9/18 15:39,508
12/9/18 15:39,507
12/9/18 15:39,506
12/9/18 15:39,507
12/9/18 15:39,506
12/9/18 15:39,506
12/9/18 15:39,505
12/9/18 15:39,507
12/9/18 15:39,508
12/9/18 15:39,509
12/9/18 15:39,507
12/9/18 15:39,509
12/9/18 15:39,507
12/9/18 15:39,508
12/9/18 15:39,506
12/9/18 15:39,510
12/9/18 15:39,509
12/9/18 15:39,509
12/9/18 15:39,509
12/9/18 15:39,509
12/9/18 15:39,506
12/9/18 15:39,509
12/9/18 15:39,509
12/9/18 15:39,532
12/9/18 15:39,509
12/9/18 15:39,514
12/9/18 15:39,500
12/9/18 15:39,496
12/9/18 15:39,501
12/9/18 15:39,508
12/9/18 15:39,509
12/9/18 15:39,516
12/9/18 15:39,511
12/9/18 15:39,512
12/9/18 15:39,505
12/9/18 15:39,502
12/9/18 15:39,506
12/9/18 15:39,507
12/9/18 15:39,503
12/9/18 15:39,504
12/9/18 15:39,505
12/9/18 15:39,505
12/9/18 15:39,507
12/9/18 15:39,506
12/9/18 15:39,510
12/9/18 15:39,508
12/9/18 15:39,507
12/9/18 15:39,508
12/9/18 15:39,508
12/9/18 15:39,506
12/9/18 15:39,509
12/9/18 15:39,508
12/9/18 15:39,510
12/9/18 15:39,513
12/9/18 15:39,510
12/9/18 15:39,510
12/9/18 15:39,511
12/9/18 15:39,510
12/9/18 15:39,509
12/9/18 15:39,507
12/9/18 15:39,509
12/9/18 15:39,508
12/9/18 15:39,508
12/9/18 15:39,510
12/9/18 15:39,509
12/9/18 15:39,509
12/9/18 15:39,508
12/9/18 15:39,508
12/9/18 15:39,508
12/9/18 15:39,509
12/9/18 15:39,507
12/9/18 15:39,509
12/9/18 15:39,510
12/9/18 15:39,509
12/9/18 15:39,510
12/9/18 15:39,509
12/9/18 15:39,510
12/9/18 15:39,508
12/9/18 15:39,510
12/9/18 15:39,510
12/9/18 15:39,509
12/9/18 15:39,509
12/9/18 15:39,509
12/9/18 15:39,509
12/9/18 15:39,509
12/9/18 15:39,508
12/9/18 15:39,507
12/9/18 15:39,509
12/9/18 15:39,507
12/9/18 15:39,509
12/9/18 15:39,509
12/9/18 15:39,508
12/9/18 15:39,508
12/9/18 15:39,509
12/9/18 15:39,508
12/9/18 15:39,507
12/9/18 15:39,508
12/9/18 15:39,508
12/9/18 15:39,507
12/9/18 15:39,508
12/9/18 15:39,507
12/9/18 15:39,508
12/9/18 15:39,510
12/9/18 15:39,507
12/9/18 15:39,507
12/9/18 15:39,506
12/9/18 15:39,511
12/9/18 15:39,508
12/9/18 15:39,504
12/9/18 15:39,508
12/9/18 15:39,507
12/9/18 15:39,507
12/9/18 15:39,508
12/9/18 15:39,508
12/9/18 15:39,509
12/9/18 15:39,508
12/9/18 15:39,507
12/9/18 15:39,507
12/9/18 15:39,507
12/9/18 15:39,508
12/9/18 15:39,508
12/9/18 15:39,508
12/9/18 15:39,510
12/9/18 15:39,507
12/9/18 15:39,508
12/9/18 15:39,507
12/9/18 15:39,508
12/9/18 15:39,508
12/9/18 15:39,507
12/9/18 15:39,507
12/9/18 15:39,508
12/9/18 15:39,508
12/9/18 15:39,508
12/9/18 15:39,509
12/9/18 15:39,507
12/9/18 15:39,509
12/9/18 15:39,509
12/9/18 15:39,510
12/9/18 15:39,507
12/9/18 15:39,509
12/9/18 15:39,508
12/9/18 15:39,520
12/9/18 15:39,521
12/9/18 15:39,509
12/9/18 15:39,507
12/9/18 15:39,498
12/9/18 15:39,500
12/9/18 15:39,510
12/9/18 15:39,509
12/9/18 15:39,511
12/9/18 15:39,509
12/9/18 15:39,506
12/9/18 15:39,506
12/9/18 15:39,507
12/9/18 15:39,514
12/9/18 15:39,510
12/9/18 15:39,505
12/9/18 15:39,505
12/9/18 15:39,505
12/9/18 15:39,505
12/9/18 15:39,506
12/9/18 15:39,507
12/9/18 15:39,506
12/9/18 15:39,504
12/9/18 15:39,507
12/9/18 15:39,507
12/9/18 15:39,509
12/9/18 15:39,509
12/9/18 15:39,504
12/9/18 15:39,505
12/9/18 15:39,509
12/9/18 15:39,509
12/9/18 15:39,509
12/9/18 15:39,509
12/9/18 15:39,509
12/9/18 15:39,510
12/9/18 15:39,508
12/9/18 15:39,510
12/9/18 15:39,509
12/9/18 15:39,510
12/9/18 15:39,510
12/9/18 15:39,509
12/9/18 15:39,507
12/9/18 15:39,509
12/9/18 15:39,510
12/9/18 15:39,509
12/9/18 15:39,508
12/9/18 15:39,507
12/9/18 15:39,509
12/9/18 15:39,510
12/9/18 15:39,508
12/9/18 15:39,508
12/9/18 15:39,509
12/9/18 15:39,509
12/9/18 15:39,510
12/9/18 15:39,509
12/9/18 15:39,507
12/9/18 15:39,510
12/9/18 15:39,509
12/9/18 15:39,508
12/9/18 15:39,506
12/9/18 15:39,509
12/9/18 15:39,509
12/9/18 15:39,510
12/9/18 15:39,510
12/9/18 15:39,509
12/9/18 15:39,511
12/9/18 15:39,510
12/9/18 15:39,511
12/9/18 15:39,508
12/9/18 15:39,509
12/9/18 15:39,511
12/9/18 15:39,507
12/9/18 15:39,508
12/9/18 15:39,510
12/9/18 15:39,506
12/9/18 15:39,509
12/9/18 15:39,508
12/9/18 15:39,507
12/9/18 15:39,507
12/9/18 15:39,508
12/9/18 15:39,510
12/9/18 15:39,508
12/9/18 15:39,509
12/9/18 15:39,507
12/9/18 15:39,508
12/9/18 15:39,507
12/9/18 15:39,509
12/9/18 15:39,508
12/9/18 15:39,506
12/9/18 15:39,507
12/9/18 15:39,506
12/9/18 15:39,507
12/9/18 15:39,507
12/9/18 15:39,507
12/9/18 15:39,507
12/9/18 15:39,508
12/9/18 15:39,508
12/9/18 15:39,509
12/9/18 15:39,508
12/9/18 15:39,509
12/9/18 15:39,509
12/9/18 15:39,509
12/9/18 15:39,507
12/9/18 15:39,508
12/9/18 15:39,509
12/9/18 15:39,507
12/9/18 15:39,508
12/9/18 15:39,509
12/9/18 15:39,507
12/9/18 15:39,507
12/9/18 15:39,507
12/9/18 15:39,509
12/9/18 15:39,509
12/9/18 15:39,507
12/9/18 15:39,508
12/9/18 15:39,507
12/9/18 15:39,509
12/9/18 15:39,508
12/9/18 15:39,507
12/9/18 15:39,508
12/9/18 15:39,508
12/9/18 15:39,517
12/9/18 15:39,515
12/9/18 15:39,513
12/9/18 15:39,508
12/9/18 15:39,500
12/9/18 15:39,497
12/9/18 15:39,510
12/9/18 15:39,509
12/9/18 15:39,509
12/9/18 15:39,514
12/9/18 15:39,510
12/9/18 15:39,502
12/9/18 15:39,502
12/9/18 15:39,504
12/9/18 15:39,504
12/9/18 15:39,505
12/9/18 15:39,510
12/9/18 15:39,506
12/9/18 15:39,508
12/9/18 15:39,507
12/9/18 15:39,503
12/9/18 15:39,506
12/9/18 15:39,510
12/9/18 15:39,510
12/9/18 15:39,510
12/9/18 15:39,507
12/9/18 15:39,509
12/9/18 15:39,508
12/9/18 15:39,510
12/9/18 15:39,508
12/9/18 15:39,509
12/9/18 15:39,508
12/9/18 15:39,508
12/9/18 15:39,509
12/9/18 15:39,509
12/9/18 15:39,508
12/9/18 15:39,507
12/9/18 15:39,508
12/9/18 15:39,508
12/9/18 15:39,510
12/9/18 15:39,509
12/9/18 15:39,509
12/9/18 15:39,507
12/9/18 15:39,508
12/9/18 15:39,509
12/9/18 15:39,510
12/9/18 15:39,510
12/9/18 15:39,510
12/9/18 15:39,509
12/9/18 15:39,509
12/9/18 15:39,510
12/9/18 15:39,509
12/9/18 15:39,508
12/9/18 15:39,509
12/9/18 15:39,508
12/9/18 15:39,509
12/9/18 15:39,509
12/9/18 15:39,507
12/9/18 15:39,509
12/9/18 15:39,509
12/9/18 15:39,509
12/9/18 15:39,509
12/9/18 15:39,509
12/9/18 15:39,509
12/9/18 15:39,508
12/9/18 15:39,510
12/9/18 15:39,506
12/9/18 15:39,510
12/9/18 15:39,509
12/9/18 15:39,507
12/9/18 15:39,508
12/9/18 15:39,508
12/9/18 15:39,508
12/9/18 15:39,508
12/9/18 15:39,506
12/9/18 15:39,509
12/9/18 15:39,508
12/9/18 15:39,507
12/9/18 15:39,507
12/9/18 15:39,508
12/9/18 15:39,507
12/9/18 15:39,508
12/9/18 15:39,509
12/9/18 15:39,507
12/9/18 15:39,507
12/9/18 15:39,506
12/9/18 15:39,508
12/9/18 15:39,508
12/9/18 15:39,506
12/9/18 15:39,504
12/9/18 15:39,507
12/9/18 15:39,506
12/9/18 15:39,509
12/9/18 15:39,508
12/9/18 15:39,507
12/9/18 15:39,508
12/9/18 15:39,508
12/9/18 15:39,507
12/9/18 15:39,509
12/9/18 15:39,507
12/9/18 15:39,506
12/9/18 15:39,507
12/9/18 15:39,509
12/9/18 15:39,508
12/9/18 15:39,508
12/9/18 15:39,508
12/9/18 15:39,509
12/9/18 15:39,508
12/9/18 15:39,508
12/9/18 15:39,508
12/9/18 15:39,509
12/9/18 15:39,509
12/9/18 15:39,509
12/9/18 15:39,508
12/9/18 15:39,508
12/9/18 15:39,529
12/9/18 15:39,522
12/9/18 15:39,504
12/9/18 15:39,501
12/9/18 15:39,497
12/9/18 15:39,506
12/9/18 15:39,509
12/9/18 15:39,508
12/9/18 15:39,504
12/9/18 15:39,510
12/9/18 15:39,515
12/9/18 15:39,515
12/9/18 15:39,504
12/9/18 15:39,501
12/9/18 15:39,506
12/9/18 15:39,508
12/9/18 15:39,508
12/9/18 15:39,508
12/9/18 15:39,506
12/9/18 15:39,507
12/9/18 15:39,507
12/9/18 15:39,504
12/9/18 15:39,505
12/9/18 15:39,504
12/9/18 15:39,506
12/9/18 15:39,507
12/9/18 15:39,509
12/9/18 15:39,507
12/9/18 15:39,506
12/9/18 15:39,508
12/9/18 15:39,508
12/9/18 15:39,507
12/9/18 15:39,507
12/9/18 15:39,508
12/9/18 15:39,509
12/9/18 15:39,509
12/9/18 15:39,509
12/9/18 15:39,510
12/9/18 15:39,508
12/9/18 15:39,509
12/9/18 15:39,510
12/9/18 15:39,509
12/9/18 15:39,509
12/9/18 15:39,510
12/9/18 15:39,509
12/9/18 15:39,508
12/9/18 15:39,508
12/9/18 15:39,510
12/9/18 15:39,509
12/9/18 15:39,509
12/9/18 15:39,510
12/9/18 15:39,510
12/9/18 15:39,510
12/9/18 15:39,509
12/9/18 15:39,509
12/9/18 15:39,509
12/9/18 15:39,508
12/9/18 15:39,509
12/9/18 15:39,509
12/9/18 15:39,511
12/9/18 15:39,508
12/9/18 15:39,509
12/9/18 15:39,508
12/9/18 15:39,509
12/9/18 15:39,510
12/9/18 15:39,510
12/9/18 15:39,509
12/9/18 15:39,509
12/9/18 15:39,507
12/9/18 15:39,510
12/9/18 15:39,507
12/9/18 15:39,508
12/9/18 15:39,506
12/9/18 15:39,507
12/9/18 15:39,510
12/9/18 15:39,507
12/9/18 15:39,508
12/9/18 15:39,507
12/9/18 15:48,507
12/9/18 15:48,508
12/9/18 15:48,509
12/9/18 15:48,508
12/9/18 15:48,508
12/9/18 15:48,508
12/9/18 15:48,505
12/9/18 15:48,542
12/9/18 15:48,507
12/9/18 15:48,494
12/9/18 15:48,487
12/9/18 15:48,512
12/9/18 15:48,508
12/9/18 15:48,515
12/9/18 15:48,516
12/9/18 15:48,510
12/9/18 15:48,507
12/9/18 15:48,508
12/9/18 15:48,506
12/9/18 15:48,511
12/9/18 15:48,505
12/9/18 15:48,502
12/9/18 15:48,503
12/9/18 15:48,507
12/9/18 15:48,508
12/9/18 15:48,505
12/9/18 15:48,506
12/9/18 15:48,503
12/9/18 15:48,508
12/9/18 15:48,506
12/9/18 15:48,502
12/9/18 15:48,507
12/9/18 15:48,506
12/9/18 15:48,509
12/9/18 15:48,508
12/9/18 15:48,506
12/9/18 15:48,509
12/9/18 15:48,507
12/9/18 15:48,510
12/9/18 15:48,509
12/9/18 15:48,509
12/9/18 15:48,508
12/9/18 15:48,508
12/9/18 15:48,509
12/9/18 15:48,510
12/9/18 15:48,510
12/9/18 15:48,509
12/9/18 15:48,510
12/9/18 15:48,509
12/9/18 15:48,508
12/9/18 15:48,509
12/9/18 15:48,509
12/9/18 15:48,509
12/9/18 15:48,509
12/9/18 15:48,509
12/9/18 15:48,509
12/9/18 15:48,509
12/9/18 15:48,509
12/9/18 15:48,508
12/9/18 15:48,508
12/9/18 15:48,508
12/9/18 15:48,509
12/9/18 15:48,509
12/9/18 15:48,509
12/9/18 15:48,508
12/9/18 15:48,509
