X,Bin ECG
12/8/18 13:09,505
12/8/18 13:09,506
12/8/18 13:09,506
12/8/18 13:09,506
12/8/18 13:09,505
12/8/18 13:09,503
12/8/18 13:09,500
12/8/18 13:09,506
12/8/18 13:09,507
12/8/18 13:09,510
12/8/18 13:09,508
12/8/18 13:09,510
12/8/18 13:09,508
12/8/18 13:09,507
12/8/18 13:09,507
12/8/18 13:09,508
12/8/18 13:09,505
12/8/18 13:09,505
12/8/18 13:09,509
12/8/18 13:09,509
12/8/18 13:09,509
12/8/18 13:09,508
12/8/18 13:09,507
12/8/18 13:09,508
12/8/18 13:09,509
12/8/18 13:09,509
12/8/18 13:09,509
12/8/18 13:09,508
12/8/18 13:09,509
12/8/18 13:09,507
12/8/18 13:09,508
12/8/18 13:09,508
12/8/18 13:09,507
12/8/18 13:09,507
12/8/18 13:09,507
12/8/18 13:09,509
12/8/18 13:09,508
12/8/18 13:09,508
12/8/18 13:09,506
12/8/18 13:09,509
12/8/18 13:09,507
12/8/18 13:09,508
12/8/18 13:09,508
12/8/18 13:09,507
12/8/18 13:09,507
12/8/18 13:09,508
12/8/18 13:09,509
12/8/18 13:09,507
12/8/18 13:09,508
12/8/18 13:09,505
12/8/18 13:09,507
12/8/18 13:09,505
12/8/18 13:09,506
12/8/18 13:09,505
12/8/18 13:09,506
12/8/18 13:09,507
12/8/18 13:09,507
12/8/18 13:09,507
12/8/18 13:09,508
12/8/18 13:09,507
12/8/18 13:09,506
12/8/18 13:09,509
12/8/18 13:09,506
12/8/18 13:09,507
12/8/18 13:09,508
12/8/18 13:09,507
12/8/18 13:09,507
12/8/18 13:09,507
12/8/18 13:09,507
12/8/18 13:09,507
12/8/18 13:09,507
12/8/18 13:09,505
12/8/18 13:09,506
12/8/18 13:09,507
12/8/18 13:09,506
12/8/18 13:09,506
12/8/18 13:09,505
12/8/18 13:09,508
12/8/18 13:09,508
12/8/18 13:09,508
12/8/18 13:09,506
12/8/18 13:09,507
12/8/18 13:09,507
12/8/18 13:09,507
12/8/18 13:09,507
12/8/18 13:09,507
12/8/18 13:09,508
12/8/18 13:09,506
12/8/18 13:09,506
12/8/18 13:09,507
12/8/18 13:09,509
12/8/18 13:09,506
12/8/18 13:09,507
12/8/18 13:09,507
12/8/18 13:09,506
12/8/18 13:09,507
12/8/18 13:09,507
12/8/18 13:09,506
12/8/18 13:09,506
12/8/18 13:09,507
12/8/18 13:09,506
12/8/18 13:09,506
12/8/18 13:09,506
12/8/18 13:09,506
12/8/18 13:09,534
12/8/18 13:09,583
12/8/18 13:09,536
12/8/18 13:09,462
12/8/18 13:09,447
12/8/18 13:09,469
12/8/18 13:09,497
12/8/18 13:09,508
12/8/18 13:09,518
12/8/18 13:09,511
12/8/18 13:09,510
12/8/18 13:09,507
12/8/18 13:09,506
12/8/18 13:09,507
12/8/18 13:09,505
12/8/18 13:09,508
12/8/18 13:09,508
12/8/18 13:09,504
12/8/18 13:09,504
12/8/18 13:09,506
12/8/18 13:09,506
12/8/18 13:09,507
12/8/18 13:09,508
12/8/18 13:09,509
12/8/18 13:09,509
12/8/18 13:09,507
12/8/18 13:09,507
12/8/18 13:09,504
12/8/18 13:09,506
12/8/18 13:09,506
12/8/18 13:09,507
12/8/18 13:09,508
12/8/18 13:09,506
12/8/18 13:09,508
12/8/18 13:09,508
12/8/18 13:09,506
12/8/18 13:09,504
12/8/18 13:09,504
12/8/18 13:09,507
12/8/18 13:09,507
12/8/18 13:09,505
12/8/18 13:09,507
12/8/18 13:09,507
12/8/18 13:09,508
12/8/18 13:09,507
12/8/18 13:09,507
12/8/18 13:09,507
12/8/18 13:09,507
12/8/18 13:09,509
12/8/18 13:09,508
12/8/18 13:09,508
12/8/18 13:09,507
12/8/18 13:09,508
12/8/18 13:09,507
12/8/18 13:09,509
12/8/18 13:09,508
12/8/18 13:09,510
12/8/18 13:09,505
12/8/18 13:09,509
12/8/18 13:09,509
12/8/18 13:09,510
12/8/18 13:09,510
12/8/18 13:09,507
12/8/18 13:09,509
12/8/18 13:09,507
12/8/18 13:09,508
12/8/18 13:09,505
12/8/18 13:09,507
12/8/18 13:09,508
12/8/18 13:09,507
12/8/18 13:09,509
12/8/18 13:09,508
12/8/18 13:09,507
12/8/18 13:09,509
12/8/18 13:09,510
12/8/18 13:09,507
12/8/18 13:09,507
12/8/18 13:09,505
12/8/18 13:09,508
12/8/18 13:09,505
12/8/18 13:09,507
12/8/18 13:09,509
12/8/18 13:09,507
12/8/18 13:09,507
12/8/18 13:09,505
12/8/18 13:09,506
12/8/18 13:09,507
12/8/18 13:09,506
12/8/18 13:09,506
12/8/18 13:09,506
12/8/18 13:09,507
12/8/18 13:09,504
12/8/18 13:09,501
12/8/18 13:09,504
12/8/18 13:09,506
12/8/18 13:09,508
12/8/18 13:09,509
12/8/18 13:09,509
12/8/18 13:09,509
12/8/18 13:09,508
12/8/18 13:09,508
12/8/18 13:09,508
12/8/18 13:09,507
12/8/18 13:09,509
12/8/18 13:09,508
12/8/18 13:09,508
12/8/18 13:09,507
12/8/18 13:09,508
12/8/18 13:09,506
12/8/18 13:09,505
12/8/18 13:09,508
12/8/18 13:09,507
12/8/18 13:09,507
12/8/18 13:09,505
12/8/18 13:09,507
12/8/18 13:09,510
12/8/18 13:09,506
12/8/18 13:09,507
12/8/18 13:09,509
12/8/18 13:09,507
12/8/18 13:09,507
12/8/18 13:09,506
12/8/18 13:09,505
12/8/18 13:09,507
12/8/18 13:09,506
12/8/18 13:09,508
12/8/18 13:09,506
12/8/18 13:09,507
12/8/18 13:09,506
12/8/18 13:09,505
12/8/18 13:09,522
12/8/18 13:09,596
12/8/18 13:09,541
12/8/18 13:09,469
12/8/18 13:09,445
12/8/18 13:09,463
12/8/18 13:09,492
12/8/18 13:09,505
12/8/18 13:09,515
12/8/18 13:09,511
12/8/18 13:09,509
12/8/18 13:09,507
12/8/18 13:09,509
12/8/18 13:09,508
12/8/18 13:09,506
12/8/18 13:09,505
12/8/18 13:09,509
12/8/18 13:09,509
12/8/18 13:09,508
12/8/18 13:09,503
12/8/18 13:09,505
12/8/18 13:09,505
12/8/18 13:09,506
12/8/18 13:09,505
12/8/18 13:09,505
12/8/18 13:09,505
12/8/18 13:09,505
12/8/18 13:09,507
12/8/18 13:09,505
12/8/18 13:09,506
12/8/18 13:09,507
12/8/18 13:09,508
12/8/18 13:09,507
12/8/18 13:09,506
12/8/18 13:09,506
12/8/18 13:09,507
12/8/18 13:09,507
12/8/18 13:09,507
12/8/18 13:09,506
12/8/18 13:09,507
12/8/18 13:09,508
12/8/18 13:09,507
12/8/18 13:09,507
12/8/18 13:09,507
12/8/18 13:09,508
12/8/18 13:09,509
12/8/18 13:09,507
12/8/18 13:09,508
12/8/18 13:09,508
12/8/18 13:09,507
12/8/18 13:09,508
12/8/18 13:09,506
12/8/18 13:09,508
12/8/18 13:09,509
12/8/18 13:09,508
12/8/18 13:09,508
12/8/18 13:09,507
12/8/18 13:09,509
12/8/18 13:09,508
12/8/18 13:09,509
12/8/18 13:09,509
12/8/18 13:09,509
12/8/18 13:09,506
12/8/18 13:09,507
12/8/18 13:09,506
12/8/18 13:09,504
12/8/18 13:09,506
12/8/18 13:09,508
12/8/18 13:09,508
12/8/18 13:09,507
12/8/18 13:09,509
12/8/18 13:09,507
12/8/18 13:09,510
12/8/18 13:09,508
12/8/18 13:09,508
12/8/18 13:09,510
12/8/18 13:09,506
12/8/18 13:09,507
12/8/18 13:09,506
12/8/18 13:09,507
12/8/18 13:09,507
12/8/18 13:09,507
12/8/18 13:09,507
12/8/18 13:09,507
12/8/18 13:09,507
12/8/18 13:09,507
12/8/18 13:09,505
12/8/18 13:09,507
12/8/18 13:09,506
12/8/18 13:09,507
12/8/18 13:09,507
12/8/18 13:09,506
12/8/18 13:09,507
12/8/18 13:09,506
12/8/18 13:09,500
12/8/18 13:09,505
12/8/18 13:09,506
12/8/18 13:09,508
12/8/18 13:09,509
12/8/18 13:09,509
12/8/18 13:09,509
12/8/18 13:09,508
12/8/18 13:09,507
12/8/18 13:09,508
12/8/18 13:09,509
12/8/18 13:09,507
12/8/18 13:09,506
12/8/18 13:09,507
12/8/18 13:09,508
12/8/18 13:09,507
12/8/18 13:09,507
12/8/18 13:09,506
12/8/18 13:09,508
12/8/18 13:09,507
12/8/18 13:09,507
12/8/18 13:09,507
12/8/18 13:09,506
12/8/18 13:09,507
12/8/18 13:09,505
12/8/18 13:09,506
12/8/18 13:09,506
12/8/18 13:09,506
12/8/18 13:09,508
12/8/18 13:09,507
12/8/18 13:09,508
12/8/18 13:09,508
12/8/18 13:09,506
12/8/18 13:09,509
12/8/18 13:09,508
12/8/18 13:09,598
12/8/18 13:09,547
12/8/18 13:09,492
12/8/18 13:09,450
12/8/18 13:09,455
12/8/18 13:09,485
12/8/18 13:09,505
12/8/18 13:09,511
12/8/18 13:09,515
12/8/18 13:09,511
12/8/18 13:09,507
12/8/18 13:09,506
12/8/18 13:09,506
12/8/18 13:09,507
12/8/18 13:09,506
12/8/18 13:09,505
12/8/18 13:09,509
12/8/18 13:09,508
12/8/18 13:09,507
12/8/18 13:09,507
12/8/18 13:09,507
12/8/18 13:09,507
12/8/18 13:09,504
12/8/18 13:09,505
12/8/18 13:09,505
12/8/18 13:09,506
12/8/18 13:09,506
12/8/18 13:09,506
12/8/18 13:09,505
12/8/18 13:09,505
12/8/18 13:09,507
12/8/18 13:09,507
12/8/18 13:09,505
12/8/18 13:09,508
12/8/18 13:09,508
12/8/18 13:09,508
12/8/18 13:09,508
12/8/18 13:09,506
12/8/18 13:09,507
12/8/18 13:09,509
12/8/18 13:09,507
12/8/18 13:09,508
12/8/18 13:09,507
12/8/18 13:09,508
12/8/18 13:09,508
12/8/18 13:09,509
12/8/18 13:09,508
12/8/18 13:09,507
12/8/18 13:09,508
12/8/18 13:09,507
12/8/18 13:09,508
12/8/18 13:09,508
12/8/18 13:09,507
12/8/18 13:09,509
12/8/18 13:09,507
12/8/18 13:09,507
12/8/18 13:09,507
12/8/18 13:09,508
12/8/18 13:09,507
12/8/18 13:09,509
12/8/18 13:09,509
12/8/18 13:09,504
12/8/18 13:09,502
12/8/18 13:09,506
12/8/18 13:09,503
12/8/18 13:09,507
12/8/18 13:09,508
12/8/18 13:09,510
12/8/18 13:09,511
12/8/18 13:09,510
12/8/18 13:09,510
12/8/18 13:09,509
12/8/18 13:09,509
12/8/18 13:09,509
12/8/18 13:09,508
12/8/18 13:09,507
12/8/18 13:09,506
12/8/18 13:09,506
12/8/18 13:09,506
12/8/18 13:09,508
12/8/18 13:09,505
12/8/18 13:09,505
12/8/18 13:09,507
12/8/18 13:09,507
12/8/18 13:09,507
12/8/18 13:09,508
12/8/18 13:09,506
12/8/18 13:09,508
12/8/18 13:09,505
12/8/18 13:09,507
12/8/18 13:09,508
12/8/18 13:09,507
12/8/18 13:09,508
12/8/18 13:09,506
12/8/18 13:09,506
12/8/18 13:09,507
12/8/18 13:09,505
12/8/18 13:09,506
12/8/18 13:09,508
12/8/18 13:09,506
12/8/18 13:09,507
12/8/18 13:09,505
12/8/18 13:09,507
12/8/18 13:09,505
12/8/18 13:09,506
12/8/18 13:09,508
12/8/18 13:09,506
12/8/18 13:09,507
12/8/18 13:09,506
12/8/18 13:09,507
12/8/18 13:09,507
12/8/18 13:09,508
12/8/18 13:09,506
12/8/18 13:09,509
12/8/18 13:09,506
12/8/18 13:09,506
12/8/18 13:09,507
12/8/18 13:09,507
12/8/18 13:09,496
12/8/18 13:09,500
12/8/18 13:09,508
12/8/18 13:09,509
12/8/18 13:09,510
12/8/18 13:09,508
12/8/18 13:09,508
12/8/18 13:09,510
12/8/18 13:09,510
12/8/18 13:09,509
12/8/18 13:09,508
12/8/18 13:09,521
12/8/18 13:09,594
12/8/18 13:09,544
12/8/18 13:09,470
12/8/18 13:09,447
12/8/18 13:09,465
12/8/18 13:09,494
12/8/18 13:09,506
12/8/18 13:09,515
12/8/18 13:09,510
12/8/18 13:09,511
12/8/18 13:09,506
12/8/18 13:09,506
12/8/18 13:09,507
12/8/18 13:09,506
12/8/18 13:09,506
12/8/18 13:09,506
12/8/18 13:09,506
12/8/18 13:09,509
12/8/18 13:09,505
12/8/18 13:09,507
12/8/18 13:09,509
12/8/18 13:09,506
12/8/18 13:09,506
12/8/18 13:09,505
12/8/18 13:09,505
12/8/18 13:09,505
12/8/18 13:09,505
12/8/18 13:09,506
12/8/18 13:09,506
12/8/18 13:09,505
12/8/18 13:09,500
12/8/18 13:09,502
12/8/18 13:09,501
12/8/18 13:09,503
12/8/18 13:09,510
12/8/18 13:09,510
12/8/18 13:09,507
12/8/18 13:09,509
12/8/18 13:09,510
12/8/18 13:09,507
12/8/18 13:09,510
12/8/18 13:09,507
12/8/18 13:09,507
12/8/18 13:09,508
12/8/18 13:09,508
12/8/18 13:09,508
12/8/18 13:09,508
12/8/18 13:09,508
12/8/18 13:09,508
12/8/18 13:09,509
12/8/18 13:09,508
12/8/18 13:09,508
12/8/18 13:09,507
12/8/18 13:09,507
12/8/18 13:09,508
12/8/18 13:09,507
12/8/18 13:09,508
12/8/18 13:09,507
12/8/18 13:09,508
12/8/18 13:09,508
12/8/18 13:09,507
12/8/18 13:09,508
12/8/18 13:09,507
12/8/18 13:09,507
12/8/18 13:09,509
12/8/18 13:09,507
12/8/18 13:09,506
12/8/18 13:09,507
12/8/18 13:09,507
12/8/18 13:09,508
12/8/18 13:09,507
12/8/18 13:09,509
12/8/18 13:09,508
12/8/18 13:09,507
12/8/18 13:09,507
12/8/18 13:09,508
12/8/18 13:09,507
12/8/18 13:09,502
12/8/18 13:09,500
12/8/18 13:09,500
12/8/18 13:09,502
12/8/18 13:09,509
12/8/18 13:09,513
12/8/18 13:09,510
12/8/18 13:09,509
12/8/18 13:09,510
12/8/18 13:09,509
12/8/18 13:09,509
12/8/18 13:09,508
12/8/18 13:09,508
12/8/18 13:09,508
12/8/18 13:09,507
12/8/18 13:09,508
12/8/18 13:09,506
12/8/18 13:09,505
12/8/18 13:09,505
12/8/18 13:09,506
12/8/18 13:09,505
12/8/18 13:09,505
12/8/18 13:09,507
12/8/18 13:09,505
12/8/18 13:09,509
12/8/18 13:09,506
12/8/18 13:09,507
12/8/18 13:09,506
12/8/18 13:09,506
12/8/18 13:09,506
12/8/18 13:18,513
12/8/18 13:18,513
12/8/18 13:18,510
12/8/18 13:18,511
12/8/18 13:18,508
12/8/18 13:18,510
12/8/18 13:18,507
12/8/18 13:18,507
12/8/18 13:18,502
12/8/18 13:18,500
12/8/18 13:18,505
12/8/18 13:18,506
12/8/18 13:18,509
12/8/18 13:18,508
12/8/18 13:18,507
12/8/18 13:18,508
12/8/18 13:18,507
12/8/18 13:18,507
12/8/18 13:18,508
12/8/18 13:18,507
12/8/18 13:18,508
12/8/18 13:18,506
12/8/18 13:18,506
12/8/18 13:18,507
12/8/18 13:18,506
12/8/18 13:18,508
12/8/18 13:18,507
12/8/18 13:18,507
12/8/18 13:18,510
12/8/18 13:18,505
12/8/18 13:18,508
12/8/18 13:18,508
12/8/18 13:18,507
12/8/18 13:18,510
12/8/18 13:18,506
12/8/18 13:18,507
12/8/18 13:18,508
12/8/18 13:18,510
12/8/18 13:18,509
12/8/18 13:18,508
12/8/18 13:18,508
12/8/18 13:18,509
12/8/18 13:18,510
12/8/18 13:18,510
12/8/18 13:18,507
12/8/18 13:18,510
12/8/18 13:18,506
12/8/18 13:18,507
12/8/18 13:18,508
12/8/18 13:18,507
12/8/18 13:18,508
12/8/18 13:18,507
12/8/18 13:18,508
12/8/18 13:18,509
12/8/18 13:18,507
12/8/18 13:18,507
12/8/18 13:18,506
12/8/18 13:18,495
12/8/18 13:18,500
12/8/18 13:18,505
12/8/18 13:18,509
12/8/18 13:18,510
12/8/18 13:18,511
12/8/18 13:18,510
12/8/18 13:18,509
12/8/18 13:18,511
12/8/18 13:18,509
12/8/18 13:18,508
12/8/18 13:18,504
12/8/18 13:18,503
12/8/18 13:18,509
12/8/18 13:18,508
12/8/18 13:18,509
12/8/18 13:18,509
12/8/18 13:18,507
12/8/18 13:18,508
12/8/18 13:18,509
12/8/18 13:18,506
12/8/18 13:18,507
12/8/18 13:18,507
12/8/18 13:18,506
12/8/18 13:18,493
12/8/18 13:18,501
12/8/18 13:18,507
12/8/18 13:18,511
12/8/18 13:18,512
12/8/18 13:18,510
12/8/18 13:18,511
12/8/18 13:18,509
12/8/18 13:18,507
12/8/18 13:18,508
12/8/18 13:18,506
12/8/18 13:18,509
12/8/18 13:18,507
12/8/18 13:18,509
12/8/18 13:18,508
12/8/18 13:18,507
12/8/18 13:18,508
12/8/18 13:18,504
12/8/18 13:18,506
12/8/18 13:18,508
12/8/18 13:18,507
12/8/18 13:18,507
12/8/18 13:18,507
12/8/18 13:18,506
12/8/18 13:18,507
12/8/18 13:18,504
12/8/18 13:18,507
12/8/18 13:18,506
12/8/18 13:18,507
12/8/18 13:18,507
12/8/18 13:18,505
12/8/18 13:18,508
12/8/18 13:18,506
12/8/18 13:18,513
12/8/18 13:18,599
12/8/18 13:18,542
12/8/18 13:18,488
12/8/18 13:18,439
12/8/18 13:18,445
12/8/18 13:18,484
12/8/18 13:18,505
12/8/18 13:18,512
12/8/18 13:18,513
12/8/18 13:18,516
12/8/18 13:18,516
12/8/18 13:18,511
12/8/18 13:18,514
12/8/18 13:18,508
12/8/18 13:18,509
12/8/18 13:18,511
12/8/18 13:18,508
12/8/18 13:18,507
12/8/18 13:18,507
12/8/18 13:18,506
12/8/18 13:18,504
12/8/18 13:18,504
12/8/18 13:18,506
12/8/18 13:18,504
12/8/18 13:18,506
12/8/18 13:18,505
12/8/18 13:18,505
12/8/18 13:18,507
12/8/18 13:18,506
12/8/18 13:18,506
12/8/18 13:18,507
12/8/18 13:18,507
12/8/18 13:18,508
12/8/18 13:18,506
12/8/18 13:18,508
12/8/18 13:18,507
12/8/18 13:18,504
12/8/18 13:18,509
12/8/18 13:18,506
12/8/18 13:18,507
12/8/18 13:18,508
12/8/18 13:18,507
12/8/18 13:18,508
12/8/18 13:18,508
12/8/18 13:18,510
12/8/18 13:18,510
12/8/18 13:18,506
12/8/18 13:18,509
12/8/18 13:18,507
12/8/18 13:18,509
12/8/18 13:18,497
12/8/18 13:18,499
12/8/18 13:18,508
12/8/18 13:18,506
12/8/18 13:18,508
12/8/18 13:18,512
12/8/18 13:18,512
12/8/18 13:18,514
12/8/18 13:18,513
12/8/18 13:18,511
12/8/18 13:18,509
12/8/18 13:18,509
12/8/18 13:18,510
12/8/18 13:18,507
12/8/18 13:18,508
12/8/18 13:18,508
12/8/18 13:18,507
12/8/18 13:18,509
12/8/18 13:18,507
12/8/18 13:18,510
12/8/18 13:18,503
12/8/18 13:18,489
12/8/18 13:18,499
12/8/18 13:18,507
12/8/18 13:18,513
12/8/18 13:18,512
12/8/18 13:18,511
12/8/18 13:18,512
12/8/18 13:18,509
12/8/18 13:18,510
12/8/18 13:18,508
12/8/18 13:18,508
12/8/18 13:18,509
12/8/18 13:18,509
12/8/18 13:18,508
12/8/18 13:18,507
12/8/18 13:18,508
12/8/18 13:18,508
12/8/18 13:18,506
12/8/18 13:18,507
12/8/18 13:18,505
12/8/18 13:18,507
12/8/18 13:18,508
12/8/18 13:18,505
12/8/18 13:18,507
12/8/18 13:18,504
12/8/18 13:18,505
12/8/18 13:18,507
12/8/18 13:18,504
12/8/18 13:18,508
12/8/18 13:18,507
12/8/18 13:18,505
12/8/18 13:18,506
12/8/18 13:18,505
12/8/18 13:18,508
12/8/18 13:18,506
12/8/18 13:18,507
12/8/18 13:18,505
12/8/18 13:18,506
12/8/18 13:18,508
12/8/18 13:18,503
12/8/18 13:18,499
12/8/18 13:18,495
12/8/18 13:18,501
12/8/18 13:18,508
12/8/18 13:18,513
12/8/18 13:18,513
12/8/18 13:18,513
12/8/18 13:18,510
12/8/18 13:18,510
12/8/18 13:18,509
12/8/18 13:18,509
12/8/18 13:18,510
12/8/18 13:18,508
12/8/18 13:18,510
12/8/18 13:18,562
12/8/18 13:18,557
12/8/18 13:18,521
12/8/18 13:18,463
12/8/18 13:18,455
12/8/18 13:18,476
12/8/18 13:18,499
12/8/18 13:18,506
12/8/18 13:18,511
12/8/18 13:18,512
12/8/18 13:18,510
12/8/18 13:18,508
12/8/18 13:18,503
12/8/18 13:18,504
12/8/18 13:18,511
12/8/18 13:18,508
12/8/18 13:18,505
12/8/18 13:18,505
12/8/18 13:18,506
12/8/18 13:18,505
12/8/18 13:18,504
12/8/18 13:18,505
12/8/18 13:18,501
12/8/18 13:18,500
12/8/18 13:18,506
12/8/18 13:18,506
12/8/18 13:18,508
12/8/18 13:18,507
12/8/18 13:18,507
12/8/18 13:18,510
12/8/18 13:18,506
12/8/18 13:18,508
12/8/18 13:18,507
12/8/18 13:18,492
12/8/18 13:18,500
12/8/18 13:18,508
12/8/18 13:18,513
12/8/18 13:18,512
12/8/18 13:18,511
12/8/18 13:18,507
12/8/18 13:18,504
12/8/18 13:18,509
12/8/18 13:18,511
12/8/18 13:18,511
12/8/18 13:18,502
12/8/18 13:18,499
12/8/18 13:18,509
12/8/18 13:18,513
12/8/18 13:18,513
12/8/18 13:18,514
12/8/18 13:18,511
12/8/18 13:18,513
12/8/18 13:18,511
12/8/18 13:18,510
12/8/18 13:18,511
12/8/18 13:18,508
12/8/18 13:18,510
12/8/18 13:18,507
12/8/18 13:18,508
12/8/18 13:18,509
12/8/18 13:18,505
12/8/18 13:18,509
12/8/18 13:18,508
12/8/18 13:18,506
12/8/18 13:18,506
12/8/18 13:18,505
12/8/18 13:18,508
12/8/18 13:18,506
12/8/18 13:18,507
12/8/18 13:18,508
12/8/18 13:18,505
12/8/18 13:18,508
12/8/18 13:18,505
12/8/18 13:18,505
12/8/18 13:18,506
12/8/18 13:18,507
12/8/18 13:18,507
12/8/18 13:18,506
12/8/18 13:18,507
12/8/18 13:18,507
12/8/18 13:18,495
12/8/18 13:18,496
12/8/18 13:18,498
12/8/18 13:18,504
12/8/18 13:18,510
12/8/18 13:18,511
12/8/18 13:18,513
12/8/18 13:18,514
12/8/18 13:18,510
12/8/18 13:18,510
12/8/18 13:18,508
12/8/18 13:18,509
12/8/18 13:18,509
12/8/18 13:18,509
12/8/18 13:18,509
12/8/18 13:18,506
12/8/18 13:18,507
12/8/18 13:18,507
12/8/18 13:18,506
12/8/18 13:18,508
12/8/18 13:18,507
12/8/18 13:18,507
12/8/18 13:18,506
12/8/18 13:18,506
12/8/18 13:18,505
12/8/18 13:18,505
12/8/18 13:18,506
12/8/18 13:18,504
12/8/18 13:18,505
12/8/18 13:18,505
12/8/18 13:18,506
12/8/18 13:18,507
12/8/18 13:18,506
12/8/18 13:18,506
12/8/18 13:18,508
12/8/18 13:18,505
12/8/18 13:18,508
12/8/18 13:18,507
12/8/18 13:18,507
12/8/18 13:18,507
12/8/18 13:18,506
12/8/18 13:18,508
12/8/18 13:18,507
12/8/18 13:18,501
12/8/18 13:18,494
12/8/18 13:18,501
12/8/18 13:18,509
12/8/18 13:18,518
12/8/18 13:18,595
12/8/18 13:18,543
12/8/18 13:18,482
12/8/18 13:18,457
12/8/18 13:18,467
12/8/18 13:18,495
12/8/18 13:18,507
12/8/18 13:18,511
12/8/18 13:18,513
12/8/18 13:18,510
12/8/18 13:18,509
12/8/18 13:18,508
12/8/18 13:18,506
12/8/18 13:18,506
12/8/18 13:18,503
12/8/18 13:18,506
12/8/18 13:18,509
12/8/18 13:18,509
12/8/18 13:18,506
12/8/18 13:18,504
12/8/18 13:18,505
12/8/18 13:18,506
12/8/18 13:18,506
12/8/18 13:18,507
12/8/18 13:18,503
12/8/18 13:18,506
12/8/18 13:18,503
12/8/18 13:18,495
12/8/18 13:18,492
12/8/18 13:18,501
12/8/18 13:18,509
12/8/18 13:18,512
12/8/18 13:18,511
12/8/18 13:18,513
12/8/18 13:18,513
12/8/18 13:18,512
12/8/18 13:18,512
12/8/18 13:18,509
12/8/18 13:18,509
12/8/18 13:18,509
12/8/18 13:18,509
12/8/18 13:18,506
12/8/18 13:18,507
12/8/18 13:18,507
12/8/18 13:18,506
12/8/18 13:18,508
12/8/18 13:18,509
12/8/18 13:18,508
12/8/18 13:18,509
12/8/18 13:18,507
12/8/18 13:18,508
12/8/18 13:18,509
12/8/18 13:18,506
12/8/18 13:18,508
12/8/18 13:18,507
12/8/18 13:18,509
12/8/18 13:18,507
12/8/18 13:18,508
12/8/18 13:18,511
12/8/18 13:18,506
12/8/18 13:18,509
12/8/18 13:18,507
12/8/18 13:18,506
12/8/18 13:18,506
12/8/18 13:18,506
12/8/18 13:18,509
12/8/18 13:18,509
12/8/18 13:18,507
12/8/18 13:18,507
12/8/18 13:18,505
12/8/18 13:18,508
12/8/18 13:18,507
12/8/18 13:18,508
12/8/18 13:18,507
12/8/18 13:18,505
12/8/18 13:18,507
12/8/18 13:18,507
12/8/18 13:18,507
12/8/18 13:18,506
12/8/18 13:18,506
12/8/18 13:18,508
12/8/18 13:18,505
12/8/18 13:18,490
12/8/18 13:18,494
12/8/18 13:18,508
12/8/18 13:18,511
12/8/18 13:18,513
12/8/18 13:18,513
12/8/18 13:18,512
12/8/18 13:18,510
12/8/18 13:18,512
12/8/18 13:18,509
12/8/18 13:18,509
12/8/18 13:18,509
12/8/18 13:18,507
12/8/18 13:18,508
12/8/18 13:18,507
12/8/18 13:18,507
12/8/18 13:18,508
12/8/18 13:18,507
12/8/18 13:18,505
12/8/18 13:18,506
12/8/18 13:18,506
12/8/18 13:18,506
12/8/18 13:18,506
12/8/18 13:18,507
12/8/18 13:18,504
12/8/18 13:18,506
12/8/18 13:18,507
12/8/18 13:18,506
12/8/18 13:18,503
12/8/18 13:18,501
12/8/18 13:18,506
12/8/18 13:18,509
12/8/18 13:18,494
12/8/18 13:18,499
12/8/18 13:18,506
12/8/18 13:18,511
12/8/18 13:18,512
12/8/18 13:18,512
12/8/18 13:18,513
12/8/18 13:18,511
12/8/18 13:18,510
12/8/18 13:18,507
12/8/18 13:18,508
12/8/18 13:18,508
12/8/18 13:18,507
12/8/18 13:18,507
12/8/18 13:18,509
12/8/18 13:18,508
12/8/18 13:18,513
12/8/18 13:18,601
12/8/18 13:18,546
12/8/18 13:18,487
12/8/18 13:18,452
12/8/18 13:18,457
12/8/18 13:18,485
12/8/18 13:18,504
12/8/18 13:18,509
12/8/18 13:18,513
12/8/18 13:18,509
12/8/18 13:18,506
12/8/18 13:18,508
12/8/18 13:18,508
12/8/18 13:18,489
12/8/18 13:18,496
12/8/18 13:18,505
12/8/18 13:18,511
12/8/18 13:18,511
12/8/18 13:18,512
12/8/18 13:18,511
12/8/18 13:18,510
12/8/18 13:18,509
12/8/18 13:18,507
12/8/18 13:18,507
12/8/18 13:18,506
12/8/18 13:18,507
12/8/18 13:18,506
12/8/18 13:18,506
12/8/18 13:18,507
12/8/18 13:18,508
12/8/18 13:18,506
12/8/18 13:18,505
12/8/18 13:18,499
12/8/18 13:18,505
12/8/18 13:18,508
12/8/18 13:18,508
12/8/18 13:18,509
12/8/18 13:18,500
12/8/18 13:18,498
12/8/18 13:18,504
12/8/18 13:18,509
12/8/18 13:18,513
12/8/18 13:18,510
12/8/18 13:18,513
12/8/18 13:18,511
12/8/18 13:18,510
12/8/18 13:18,512
12/8/18 13:18,508
12/8/18 13:18,510
12/8/18 13:18,508
12/8/18 13:18,509
12/8/18 13:18,509
12/8/18 13:18,509
12/8/18 13:18,508
12/8/18 13:18,508
12/8/18 13:18,507
12/8/18 13:18,508
12/8/18 13:18,507
12/8/18 13:18,507
12/8/18 13:18,506
12/8/18 13:18,507
12/8/18 13:18,507
12/8/18 13:18,506
12/8/18 13:18,508
12/8/18 13:18,506
12/8/18 13:18,506
12/8/18 13:18,508
12/8/18 13:18,506
12/8/18 13:18,506
12/8/18 13:18,507
12/8/18 13:18,508
12/8/18 13:18,507
12/8/18 13:18,505
12/8/18 13:18,506
12/8/18 13:18,507
12/8/18 13:18,507
12/8/18 13:18,507
12/8/18 13:18,506
12/8/18 13:18,508
12/8/18 13:18,507
12/8/18 13:18,506
12/8/18 13:18,508
12/8/18 13:18,506
12/8/18 13:18,506
12/8/18 13:18,508
12/8/18 13:18,505
12/8/18 13:18,508
12/8/18 13:18,506
12/8/18 13:18,506
12/8/18 13:18,507
12/8/18 13:18,506
12/8/18 13:18,508
12/8/18 13:18,507
12/8/18 13:18,506
12/8/18 13:18,509
12/8/18 13:18,506
12/8/18 13:18,508
12/8/18 13:18,491
12/8/18 13:18,492
12/8/18 13:18,504
12/8/18 13:18,509
12/8/18 13:27,509
12/8/18 13:27,509
12/8/18 13:27,508
12/8/18 13:27,508
12/8/18 13:27,507
12/8/18 13:27,507
12/8/18 13:27,506
12/8/18 13:27,506
12/8/18 13:27,506
12/8/18 13:27,505
12/8/18 13:27,505
12/8/18 13:27,506
12/8/18 13:27,498
12/8/18 13:27,504
12/8/18 13:27,509
12/8/18 13:27,509
12/8/18 13:27,508
12/8/18 13:27,510
12/8/18 13:27,510
12/8/18 13:27,507
12/8/18 13:27,509
12/8/18 13:27,508
12/8/18 13:27,508
12/8/18 13:27,508
12/8/18 13:27,508
12/8/18 13:27,508
12/8/18 13:27,507
12/8/18 13:27,509
12/8/18 13:27,509
12/8/18 13:27,509
12/8/18 13:27,508
12/8/18 13:27,508
12/8/18 13:27,509
12/8/18 13:27,508
12/8/18 13:27,507
12/8/18 13:27,508
12/8/18 13:27,507
12/8/18 13:27,508
12/8/18 13:27,510
12/8/18 13:27,508
12/8/18 13:27,509
12/8/18 13:27,507
12/8/18 13:27,508
12/8/18 13:27,508
12/8/18 13:27,507
12/8/18 13:27,507
12/8/18 13:27,507
12/8/18 13:27,506
12/8/18 13:27,507
12/8/18 13:27,507
12/8/18 13:27,506
12/8/18 13:27,507
12/8/18 13:27,506
12/8/18 13:27,506
12/8/18 13:27,498
12/8/18 13:27,498
12/8/18 13:27,506
12/8/18 13:27,508
12/8/18 13:27,504
12/8/18 13:27,502
12/8/18 13:27,511
12/8/18 13:27,513
12/8/18 13:27,513
12/8/18 13:27,512
12/8/18 13:27,510
12/8/18 13:27,511
12/8/18 13:27,509
12/8/18 13:27,508
12/8/18 13:27,508
12/8/18 13:27,506
12/8/18 13:27,508
12/8/18 13:27,506
12/8/18 13:27,507
12/8/18 13:27,508
12/8/18 13:27,506
12/8/18 13:27,505
12/8/18 13:27,505
12/8/18 13:27,505
12/8/18 13:27,507
12/8/18 13:27,505
12/8/18 13:27,507
12/8/18 13:27,506
12/8/18 13:27,505
12/8/18 13:27,507
12/8/18 13:27,505
12/8/18 13:27,506
12/8/18 13:27,506
12/8/18 13:27,507
12/8/18 13:27,507
12/8/18 13:27,507
12/8/18 13:27,506
12/8/18 13:27,505
12/8/18 13:27,508
12/8/18 13:27,507
12/8/18 13:27,505
12/8/18 13:27,507
12/8/18 13:27,505
12/8/18 13:27,507
12/8/18 13:27,508
12/8/18 13:27,507
12/8/18 13:27,507
12/8/18 13:27,506
12/8/18 13:27,507
12/8/18 13:27,507
12/8/18 13:27,507
12/8/18 13:27,508
12/8/18 13:27,507
12/8/18 13:27,516
12/8/18 13:27,595
12/8/18 13:27,539
12/8/18 13:27,474
12/8/18 13:27,441
12/8/18 13:27,461
12/8/18 13:27,489
12/8/18 13:27,499
12/8/18 13:27,513
12/8/18 13:27,515
12/8/18 13:27,515
12/8/18 13:27,514
12/8/18 13:27,511
12/8/18 13:27,508
12/8/18 13:27,507
12/8/18 13:27,511
12/8/18 13:27,511
12/8/18 13:27,507
12/8/18 13:27,507
12/8/18 13:27,506
12/8/18 13:27,506
12/8/18 13:27,505
12/8/18 13:27,506
12/8/18 13:27,505
12/8/18 13:27,505
12/8/18 13:27,504
12/8/18 13:27,507
12/8/18 13:27,506
12/8/18 13:27,507
12/8/18 13:27,506
12/8/18 13:27,506
12/8/18 13:27,506
12/8/18 13:27,508
12/8/18 13:27,508
12/8/18 13:27,507
12/8/18 13:27,507
12/8/18 13:27,507
12/8/18 13:27,506
12/8/18 13:27,508
12/8/18 13:27,506
12/8/18 13:27,509
12/8/18 13:27,508
12/8/18 13:27,508
12/8/18 13:27,507
12/8/18 13:27,507
12/8/18 13:27,509
12/8/18 13:27,507
12/8/18 13:27,507
12/8/18 13:27,509
12/8/18 13:27,508
12/8/18 13:27,509
12/8/18 13:27,508
12/8/18 13:27,508
12/8/18 13:27,509
12/8/18 13:27,508
12/8/18 13:27,507
12/8/18 13:27,502
12/8/18 13:27,500
12/8/18 13:27,509
12/8/18 13:27,510
12/8/18 13:27,510
12/8/18 13:27,508
12/8/18 13:27,510
12/8/18 13:27,510
12/8/18 13:27,508
12/8/18 13:27,509
12/8/18 13:27,509
12/8/18 13:27,508
12/8/18 13:27,509
12/8/18 13:27,508
12/8/18 13:27,508
12/8/18 13:27,508
12/8/18 13:27,506
12/8/18 13:27,507
12/8/18 13:27,507
12/8/18 13:27,507
12/8/18 13:27,506
12/8/18 13:27,505
12/8/18 13:27,507
12/8/18 13:27,506
12/8/18 13:27,508
12/8/18 13:27,505
12/8/18 13:27,508
12/8/18 13:27,508
12/8/18 13:27,506
12/8/18 13:27,507
12/8/18 13:27,507
12/8/18 13:27,507
12/8/18 13:27,506
12/8/18 13:27,505
12/8/18 13:27,506
12/8/18 13:27,506
12/8/18 13:27,507
12/8/18 13:27,508
12/8/18 13:27,503
12/8/18 13:27,496
12/8/18 13:27,503
12/8/18 13:27,507
12/8/18 13:27,508
12/8/18 13:27,508
12/8/18 13:27,508
12/8/18 13:27,502
12/8/18 13:27,509
12/8/18 13:27,512
12/8/18 13:27,509
12/8/18 13:27,509
12/8/18 13:27,510
12/8/18 13:27,508
12/8/18 13:27,510
12/8/18 13:27,507
12/8/18 13:27,507
12/8/18 13:27,496
12/8/18 13:27,500
12/8/18 13:27,505
12/8/18 13:27,510
12/8/18 13:27,511
12/8/18 13:27,511
12/8/18 13:27,511
12/8/18 13:27,509
12/8/18 13:27,509
12/8/18 13:27,509
12/8/18 13:27,506
12/8/18 13:27,507
12/8/18 13:27,509
12/8/18 13:27,508
12/8/18 13:27,508
12/8/18 13:27,506
12/8/18 13:27,506
12/8/18 13:27,507
12/8/18 13:27,566
12/8/18 13:27,556
12/8/18 13:27,513
12/8/18 13:27,461
12/8/18 13:27,456
12/8/18 13:27,477
12/8/18 13:27,501
12/8/18 13:27,508
12/8/18 13:27,510
12/8/18 13:27,509
12/8/18 13:27,508
12/8/18 13:27,506
12/8/18 13:27,506
12/8/18 13:27,504
12/8/18 13:27,508
12/8/18 13:27,510
12/8/18 13:27,508
12/8/18 13:27,504
12/8/18 13:27,507
12/8/18 13:27,507
12/8/18 13:27,506
12/8/18 13:27,504
12/8/18 13:27,504
12/8/18 13:27,503
12/8/18 13:27,504
12/8/18 13:27,505
12/8/18 13:27,506
12/8/18 13:27,506
12/8/18 13:27,500
12/8/18 13:27,495
12/8/18 13:27,505
12/8/18 13:27,511
12/8/18 13:27,509
12/8/18 13:27,503
12/8/18 13:27,507
12/8/18 13:27,511
12/8/18 13:27,513
12/8/18 13:27,510
12/8/18 13:27,512
12/8/18 13:27,510
12/8/18 13:27,509
12/8/18 13:27,510
12/8/18 13:27,509
12/8/18 13:27,508
12/8/18 13:27,508
12/8/18 13:27,510
12/8/18 13:27,508
12/8/18 13:27,508
12/8/18 13:27,508
12/8/18 13:27,509
12/8/18 13:27,507
12/8/18 13:27,508
12/8/18 13:27,507
12/8/18 13:27,508
12/8/18 13:27,509
12/8/18 13:27,507
12/8/18 13:27,510
12/8/18 13:27,507
12/8/18 13:27,508
12/8/18 13:27,506
12/8/18 13:27,507
12/8/18 13:27,507
12/8/18 13:27,506
12/8/18 13:27,509
12/8/18 13:27,506
12/8/18 13:27,509
12/8/18 13:27,508
12/8/18 13:27,507
12/8/18 13:27,508
12/8/18 13:27,506
12/8/18 13:27,507
12/8/18 13:27,507
12/8/18 13:27,490
12/8/18 13:27,491
12/8/18 13:27,505
12/8/18 13:27,511
12/8/18 13:27,515
12/8/18 13:27,513
12/8/18 13:27,513
12/8/18 13:27,511
12/8/18 13:27,511
12/8/18 13:27,511
12/8/18 13:27,511
12/8/18 13:27,508
12/8/18 13:27,509
12/8/18 13:27,507
12/8/18 13:27,507
12/8/18 13:27,507
12/8/18 13:27,506
12/8/18 13:27,507
12/8/18 13:27,507
12/8/18 13:27,506
12/8/18 13:27,506
12/8/18 13:27,506
12/8/18 13:27,506
12/8/18 13:27,507
12/8/18 13:27,505
12/8/18 13:27,504
12/8/18 13:27,507
12/8/18 13:27,504
12/8/18 13:27,507
12/8/18 13:27,506
12/8/18 13:27,507
12/8/18 13:27,507
12/8/18 13:27,505
12/8/18 13:27,507
12/8/18 13:27,506
12/8/18 13:27,508
12/8/18 13:27,509
12/8/18 13:27,507
12/8/18 13:27,507
12/8/18 13:27,507
12/8/18 13:27,507
12/8/18 13:27,506
12/8/18 13:27,505
12/8/18 13:27,508
12/8/18 13:27,506
12/8/18 13:27,508
12/8/18 13:27,507
12/8/18 13:27,507
12/8/18 13:27,509
12/8/18 13:27,497
12/8/18 13:27,498
12/8/18 13:27,505
12/8/18 13:27,511
12/8/18 13:27,509
12/8/18 13:27,510
12/8/18 13:27,510
12/8/18 13:27,510
12/8/18 13:27,510
12/8/18 13:27,551
12/8/18 13:27,571
12/8/18 13:27,525
12/8/18 13:27,464
12/8/18 13:27,452
12/8/18 13:27,475
12/8/18 13:27,500
12/8/18 13:27,509
12/8/18 13:27,510
12/8/18 13:27,507
12/8/18 13:27,511
12/8/18 13:27,507
12/8/18 13:27,505
12/8/18 13:27,507
12/8/18 13:27,506
12/8/18 13:27,506
12/8/18 13:27,509
12/8/18 13:27,509
12/8/18 13:27,507
12/8/18 13:27,504
12/8/18 13:27,506
12/8/18 13:27,504
12/8/18 13:27,505
12/8/18 13:27,504
12/8/18 13:27,504
12/8/18 13:27,503
12/8/18 13:27,499
12/8/18 13:27,501
12/8/18 13:27,508
12/8/18 13:27,508
12/8/18 13:27,510
12/8/18 13:27,510
12/8/18 13:27,506
12/8/18 13:27,496
12/8/18 13:27,503
12/8/18 13:27,511
12/8/18 13:27,510
12/8/18 13:27,511
12/8/18 13:27,510
12/8/18 13:27,510
12/8/18 13:27,513
12/8/18 13:27,511
12/8/18 13:27,511
12/8/18 13:27,508
12/8/18 13:27,509
12/8/18 13:27,508
12/8/18 13:27,508
12/8/18 13:27,509
12/8/18 13:27,509
12/8/18 13:27,507
12/8/18 13:27,510
12/8/18 13:27,506
12/8/18 13:27,509
12/8/18 13:27,507
12/8/18 13:27,507
12/8/18 13:27,507
12/8/18 13:27,507
12/8/18 13:27,509
12/8/18 13:27,508
12/8/18 13:27,508
12/8/18 13:27,508
12/8/18 13:27,506
12/8/18 13:27,507
12/8/18 13:27,507
12/8/18 13:27,509
12/8/18 13:27,507
12/8/18 13:27,507
12/8/18 13:27,508
12/8/18 13:27,507
12/8/18 13:27,507
12/8/18 13:27,507
12/8/18 13:27,506
12/8/18 13:27,506
12/8/18 13:27,507
12/8/18 13:27,506
12/8/18 13:27,509
12/8/18 13:27,507
12/8/18 13:27,507
12/8/18 13:27,506
12/8/18 13:27,506
12/8/18 13:27,507
12/8/18 13:27,505
12/8/18 13:27,508
12/8/18 13:27,507
12/8/18 13:27,508
12/8/18 13:27,506
12/8/18 13:27,507
12/8/18 13:27,507
12/8/18 13:27,506
12/8/18 13:27,508
12/8/18 13:27,509
12/8/18 13:27,506
12/8/18 13:27,507
12/8/18 13:27,506
12/8/18 13:27,505
12/8/18 13:27,506
12/8/18 13:27,505
12/8/18 13:27,506
12/8/18 13:27,507
12/8/18 13:27,507
12/8/18 13:27,507
12/8/18 13:27,503
12/8/18 13:27,499
12/8/18 13:27,503
12/8/18 13:27,498
12/8/18 13:27,503
12/8/18 13:27,510
12/8/18 13:27,512
12/8/18 13:27,513
12/8/18 13:27,514
12/8/18 13:27,512
12/8/18 13:27,511
12/8/18 13:27,510
12/8/18 13:27,507
12/8/18 13:27,510
12/8/18 13:27,508
12/8/18 13:27,507
12/8/18 13:27,508
12/8/18 13:27,507
12/8/18 13:27,509
12/8/18 13:27,509
12/8/18 13:27,507
12/8/18 13:27,507
12/8/18 13:27,506
12/8/18 13:27,505
12/8/18 13:27,505
12/8/18 13:27,506
12/8/18 13:27,507
12/8/18 13:27,506
12/8/18 13:27,509
12/8/18 13:27,583
12/8/18 13:27,550
12/8/18 13:27,505
12/8/18 13:27,455
12/8/18 13:27,453
12/8/18 13:27,483
12/8/18 13:27,501
12/8/18 13:27,507
12/8/18 13:27,508
12/8/18 13:27,510
12/8/18 13:27,510
12/8/18 13:27,507
12/8/18 13:27,511
12/8/18 13:27,506
12/8/18 13:27,506
12/8/18 13:27,506
12/8/18 13:27,507
12/8/18 13:27,496
12/8/18 13:27,500
12/8/18 13:27,500
12/8/18 13:27,504
12/8/18 13:27,509
12/8/18 13:27,510
12/8/18 13:27,509
12/8/18 13:27,513
12/8/18 13:27,509
12/8/18 13:27,509
12/8/18 13:27,509
12/8/18 13:27,507
12/8/18 13:27,507
12/8/18 13:27,505
12/8/18 13:27,506
12/8/18 13:27,508
12/8/18 13:27,506
12/8/18 13:27,507
12/8/18 13:27,507
12/8/18 13:27,507
12/8/18 13:27,507
12/8/18 13:27,507
12/8/18 13:27,507
12/8/18 13:27,507
12/8/18 13:27,509
12/8/18 13:27,508
12/8/18 13:27,507
12/8/18 13:27,508
12/8/18 13:27,507
12/8/18 13:27,510
12/8/18 13:27,509
12/8/18 13:27,507
12/8/18 13:27,509
12/8/18 13:27,508
12/8/18 13:27,509
12/8/18 13:27,509
12/8/18 13:27,507
12/8/18 13:27,510
12/8/18 13:27,508
12/8/18 13:27,507
12/8/18 13:27,508
12/8/18 13:27,507
12/8/18 13:27,508
12/8/18 13:27,505
12/8/18 13:27,509
12/8/18 13:27,508
12/8/18 13:27,506
12/8/18 13:27,508
12/8/18 13:27,509
12/8/18 13:27,506
12/8/18 13:27,507
12/8/18 13:27,506
12/8/18 13:27,507
12/8/18 13:27,506
12/8/18 13:27,509
12/8/18 13:27,507
12/8/18 13:27,506
12/8/18 13:27,507
12/8/18 13:27,506
12/8/18 13:27,508
12/8/18 13:27,505
12/8/18 13:27,506
12/8/18 13:27,508
12/8/18 13:27,506
12/8/18 13:27,507
12/8/18 13:27,507
12/8/18 13:27,507
12/8/18 13:27,508
12/8/18 13:27,506
12/8/18 13:27,509
12/8/18 13:27,502
12/8/18 13:27,494
12/8/18 13:27,503
12/8/18 13:27,505
12/8/18 13:27,503
12/8/18 13:27,509
12/8/18 13:27,511
12/8/18 13:27,511
12/8/18 13:27,513
12/8/18 13:27,512
12/8/18 13:27,510
12/8/18 13:27,509
12/8/18 13:27,509
12/8/18 13:27,508
12/8/18 13:27,510
12/8/18 13:27,507
12/8/18 13:27,508
12/8/18 13:36,507
12/8/18 13:36,506
12/8/18 13:36,509
12/8/18 13:36,507
12/8/18 13:36,507
12/8/18 13:36,509
12/8/18 13:36,506
12/8/18 13:36,507
12/8/18 13:36,506
12/8/18 13:36,508
12/8/18 13:36,508
12/8/18 13:36,506
12/8/18 13:36,508
12/8/18 13:36,509
12/8/18 13:36,508
12/8/18 13:36,508
12/8/18 13:36,504
12/8/18 13:36,509
12/8/18 13:36,506
12/8/18 13:36,507
12/8/18 13:36,507
12/8/18 13:36,507
12/8/18 13:36,508
12/8/18 13:36,505
12/8/18 13:36,506
12/8/18 13:36,507
12/8/18 13:36,504
12/8/18 13:36,508
12/8/18 13:36,506
12/8/18 13:36,508
12/8/18 13:36,507
12/8/18 13:36,507
12/8/18 13:36,508
12/8/18 13:36,505
12/8/18 13:36,507
12/8/18 13:36,508
12/8/18 13:36,504
12/8/18 13:36,508
12/8/18 13:36,507
12/8/18 13:36,506
12/8/18 13:36,506
12/8/18 13:36,508
12/8/18 13:36,507
12/8/18 13:36,506
12/8/18 13:36,507
12/8/18 13:36,508
12/8/18 13:36,506
12/8/18 13:36,507
12/8/18 13:36,506
12/8/18 13:36,507
12/8/18 13:36,507
12/8/18 13:36,505
12/8/18 13:36,509
12/8/18 13:36,505
12/8/18 13:36,506
12/8/18 13:36,506
12/8/18 13:36,504
12/8/18 13:36,510
12/8/18 13:36,506
12/8/18 13:36,506
12/8/18 13:36,508
12/8/18 13:36,505
12/8/18 13:36,508
12/8/18 13:36,506
12/8/18 13:36,507
12/8/18 13:36,506
12/8/18 13:36,506
12/8/18 13:36,507
12/8/18 13:36,506
12/8/18 13:36,507
12/8/18 13:36,506
12/8/18 13:36,501
12/8/18 13:36,482
12/8/18 13:36,497
12/8/18 13:36,510
12/8/18 13:36,514
12/8/18 13:36,515
12/8/18 13:36,517
12/8/18 13:36,515
12/8/18 13:36,515
12/8/18 13:36,532
12/8/18 13:36,587
12/8/18 13:36,537
12/8/18 13:36,468
12/8/18 13:36,451
12/8/18 13:36,473
12/8/18 13:36,497
12/8/18 13:36,508
12/8/18 13:36,506
12/8/18 13:36,514
12/8/18 13:36,507
12/8/18 13:36,509
12/8/18 13:36,506
12/8/18 13:36,503
12/8/18 13:36,508
12/8/18 13:36,506
12/8/18 13:36,508
12/8/18 13:36,504
12/8/18 13:36,503
12/8/18 13:36,508
12/8/18 13:36,505
12/8/18 13:36,505
12/8/18 13:36,505
12/8/18 13:36,503
12/8/18 13:36,507
12/8/18 13:36,505
12/8/18 13:36,507
12/8/18 13:36,506
12/8/18 13:36,506
12/8/18 13:36,507
12/8/18 13:36,506
12/8/18 13:36,507
12/8/18 13:36,506
12/8/18 13:36,507
12/8/18 13:36,508
12/8/18 13:36,506
12/8/18 13:36,507
12/8/18 13:36,506
12/8/18 13:36,481
12/8/18 13:36,492
12/8/18 13:36,508
12/8/18 13:36,515
12/8/18 13:36,517
12/8/18 13:36,516
12/8/18 13:36,517
12/8/18 13:36,513
12/8/18 13:36,514
12/8/18 13:36,510
12/8/18 13:36,509
12/8/18 13:36,511
12/8/18 13:36,509
12/8/18 13:36,510
12/8/18 13:36,508
12/8/18 13:36,509
12/8/18 13:36,511
12/8/18 13:36,506
12/8/18 13:36,509
12/8/18 13:36,507
12/8/18 13:36,506
12/8/18 13:36,509
12/8/18 13:36,505
12/8/18 13:36,509
12/8/18 13:36,507
12/8/18 13:36,505
12/8/18 13:36,509
12/8/18 13:36,505
12/8/18 13:36,507
12/8/18 13:36,507
12/8/18 13:36,505
12/8/18 13:36,508
12/8/18 13:36,506
12/8/18 13:36,507
12/8/18 13:36,508
12/8/18 13:36,506
12/8/18 13:36,508
12/8/18 13:36,505
12/8/18 13:36,495
12/8/18 13:36,481
12/8/18 13:36,501
12/8/18 13:36,514
12/8/18 13:36,514
12/8/18 13:36,516
12/8/18 13:36,513
12/8/18 13:36,513
12/8/18 13:36,513
12/8/18 13:36,509
12/8/18 13:36,511
12/8/18 13:36,509
12/8/18 13:36,507
12/8/18 13:36,509
12/8/18 13:36,506
12/8/18 13:36,508
12/8/18 13:36,506
12/8/18 13:36,507
12/8/18 13:36,507
12/8/18 13:36,504
12/8/18 13:36,506
12/8/18 13:36,506
12/8/18 13:36,507
12/8/18 13:36,506
12/8/18 13:36,505
12/8/18 13:36,507
12/8/18 13:36,506
12/8/18 13:36,507
12/8/18 13:36,508
12/8/18 13:36,503
12/8/18 13:36,507
12/8/18 13:36,505
12/8/18 13:36,508
12/8/18 13:36,508
12/8/18 13:36,504
12/8/18 13:36,507
12/8/18 13:36,505
12/8/18 13:36,507
12/8/18 13:36,507
12/8/18 13:36,506
12/8/18 13:36,507
12/8/18 13:36,505
12/8/18 13:36,507
12/8/18 13:36,507
12/8/18 13:36,506
12/8/18 13:36,509
12/8/18 13:36,509
12/8/18 13:36,509
12/8/18 13:36,507
12/8/18 13:36,506
12/8/18 13:36,508
12/8/18 13:36,506
12/8/18 13:36,508
12/8/18 13:36,505
12/8/18 13:36,506
12/8/18 13:36,517
12/8/18 13:36,601
12/8/18 13:36,541
12/8/18 13:36,479
12/8/18 13:36,449
12/8/18 13:36,464
12/8/18 13:36,488
12/8/18 13:36,504
12/8/18 13:36,506
12/8/18 13:36,505
12/8/18 13:36,508
12/8/18 13:36,509
12/8/18 13:36,493
12/8/18 13:36,488
12/8/18 13:36,506
12/8/18 13:36,517
12/8/18 13:36,514
12/8/18 13:36,516
12/8/18 13:36,513
12/8/18 13:36,509
12/8/18 13:36,510
12/8/18 13:36,508
12/8/18 13:36,510
12/8/18 13:36,508
12/8/18 13:36,507
12/8/18 13:36,508
12/8/18 13:36,506
12/8/18 13:36,508
12/8/18 13:36,505
12/8/18 13:36,506
12/8/18 13:36,506
12/8/18 13:36,504
12/8/18 13:36,508
12/8/18 13:36,508
12/8/18 13:36,506
12/8/18 13:36,507
12/8/18 13:36,504
12/8/18 13:36,510
12/8/18 13:36,505
12/8/18 13:36,507
12/8/18 13:36,508
12/8/18 13:36,507
12/8/18 13:36,509
12/8/18 13:36,507
12/8/18 13:36,507
12/8/18 13:36,506
12/8/18 13:36,506
12/8/18 13:36,509
12/8/18 13:36,507
12/8/18 13:36,507
12/8/18 13:36,509
12/8/18 13:36,507
12/8/18 13:36,510
12/8/18 13:36,508
12/8/18 13:36,507
12/8/18 13:36,510
12/8/18 13:36,508
12/8/18 13:36,509
12/8/18 13:36,506
12/8/18 13:36,509
12/8/18 13:36,509
12/8/18 13:36,506
12/8/18 13:36,507
12/8/18 13:36,506
12/8/18 13:36,498
12/8/18 13:36,501
12/8/18 13:36,508
12/8/18 13:36,512
12/8/18 13:36,509
12/8/18 13:36,511
12/8/18 13:36,510
12/8/18 13:36,504
12/8/18 13:36,495
12/8/18 13:36,502
12/8/18 13:36,510
12/8/18 13:36,513
12/8/18 13:36,510
12/8/18 13:36,514
12/8/18 13:36,510
12/8/18 13:36,511
12/8/18 13:36,510
12/8/18 13:36,509
12/8/18 13:36,510
12/8/18 13:36,508
12/8/18 13:36,509
12/8/18 13:36,506
12/8/18 13:36,505
12/8/18 13:36,507
12/8/18 13:36,505
12/8/18 13:36,504
12/8/18 13:36,505
12/8/18 13:36,505
12/8/18 13:36,507
12/8/18 13:36,504
12/8/18 13:36,507
12/8/18 13:36,508
12/8/18 13:36,505
12/8/18 13:36,507
12/8/18 13:36,504
12/8/18 13:36,507
12/8/18 13:36,496
12/8/18 13:36,494
12/8/18 13:36,495
12/8/18 13:36,502
12/8/18 13:36,514
12/8/18 13:36,515
12/8/18 13:36,514
12/8/18 13:36,514
12/8/18 13:36,509
12/8/18 13:36,512
12/8/18 13:36,510
12/8/18 13:36,509
12/8/18 13:36,509
12/8/18 13:36,506
12/8/18 13:36,509
12/8/18 13:36,505
12/8/18 13:36,507
12/8/18 13:36,508
12/8/18 13:36,505
12/8/18 13:36,508
12/8/18 13:36,507
12/8/18 13:36,506
12/8/18 13:36,507
12/8/18 13:36,506
12/8/18 13:36,507
12/8/18 13:36,506
12/8/18 13:36,507
12/8/18 13:36,506
12/8/18 13:36,505
12/8/18 13:36,508
12/8/18 13:36,505
12/8/18 13:36,510
12/8/18 13:36,598
12/8/18 13:36,540
12/8/18 13:36,491
12/8/18 13:36,452
12/8/18 13:36,461
12/8/18 13:36,489
12/8/18 13:36,503
12/8/18 13:36,508
12/8/18 13:36,509
12/8/18 13:36,507
12/8/18 13:36,510
12/8/18 13:36,507
12/8/18 13:36,506
12/8/18 13:36,507
12/8/18 13:36,510
12/8/18 13:36,505
12/8/18 13:36,505
12/8/18 13:36,505
12/8/18 13:36,504
12/8/18 13:36,505
12/8/18 13:36,506
12/8/18 13:36,504
12/8/18 13:36,507
12/8/18 13:36,503
12/8/18 13:36,506
12/8/18 13:36,506
12/8/18 13:36,504
12/8/18 13:36,509
12/8/18 13:36,505
12/8/18 13:36,506
12/8/18 13:36,508
12/8/18 13:36,508
12/8/18 13:36,509
12/8/18 13:36,506
12/8/18 13:36,508
12/8/18 13:36,507
12/8/18 13:36,508
12/8/18 13:36,509
12/8/18 13:36,506
12/8/18 13:36,508
12/8/18 13:36,508
12/8/18 13:36,506
12/8/18 13:36,509
12/8/18 13:36,505
12/8/18 13:36,495
12/8/18 13:36,502
12/8/18 13:36,510
12/8/18 13:36,505
12/8/18 13:36,503
12/8/18 13:36,514
12/8/18 13:36,516
12/8/18 13:36,514
12/8/18 13:36,514
12/8/18 13:36,511
12/8/18 13:36,513
12/8/18 13:36,511
12/8/18 13:36,510
12/8/18 13:36,510
12/8/18 13:36,508
12/8/18 13:36,509
12/8/18 13:36,509
12/8/18 13:36,509
12/8/18 13:36,509
12/8/18 13:36,507
12/8/18 13:36,508
12/8/18 13:36,507
12/8/18 13:36,506
12/8/18 13:36,507
12/8/18 13:36,506
12/8/18 13:36,508
12/8/18 13:36,507
12/8/18 13:36,507
12/8/18 13:36,506
12/8/18 13:36,505
12/8/18 13:36,507
12/8/18 13:36,506
12/8/18 13:36,507
12/8/18 13:36,507
12/8/18 13:36,504
12/8/18 13:36,507
12/8/18 13:36,505
12/8/18 13:36,506
12/8/18 13:36,506
12/8/18 13:36,507
12/8/18 13:36,508
12/8/18 13:36,506
12/8/18 13:36,507
12/8/18 13:36,506
12/8/18 13:36,506
12/8/18 13:36,509
12/8/18 13:36,505
12/8/18 13:36,507
12/8/18 13:36,506
12/8/18 13:36,504
12/8/18 13:36,508
12/8/18 13:36,506
12/8/18 13:36,507
12/8/18 13:36,496
12/8/18 13:36,494
12/8/18 13:36,506
12/8/18 13:36,501
12/8/18 13:36,500
12/8/18 13:36,493
12/8/18 13:36,506
12/8/18 13:36,520
12/8/18 13:36,518
12/8/18 13:36,518
12/8/18 13:36,517
12/8/18 13:36,514
12/8/18 13:36,514
12/8/18 13:36,510
12/8/18 13:36,511
12/8/18 13:36,511
12/8/18 13:36,509
12/8/18 13:36,509
12/8/18 13:36,506
12/8/18 13:36,509
12/8/18 13:36,508
12/8/18 13:36,507
12/8/18 13:36,507
12/8/18 13:36,506
12/8/18 13:36,506
12/8/18 13:36,505
12/8/18 13:36,506
12/8/18 13:36,508
12/8/18 13:36,504
12/8/18 13:36,507
12/8/18 13:36,505
12/8/18 13:36,506
12/8/18 13:36,507
12/8/18 13:36,505
12/8/18 13:36,518
12/8/18 13:36,590
12/8/18 13:36,513
12/8/18 13:36,469
12/8/18 13:36,451
12/8/18 13:36,473
12/8/18 13:36,499
12/8/18 13:36,511
12/8/18 13:36,514
12/8/18 13:36,513
12/8/18 13:36,516
12/8/18 13:36,511
12/8/18 13:36,513
12/8/18 13:36,511
12/8/18 13:36,506
12/8/18 13:36,509
12/8/18 13:36,507
12/8/18 13:36,507
12/8/18 13:36,508
12/8/18 13:36,507
12/8/18 13:36,505
12/8/18 13:36,504
12/8/18 13:36,504
12/8/18 13:36,505
12/8/18 13:36,503
12/8/18 13:36,505
12/8/18 13:36,504
12/8/18 13:36,506
12/8/18 13:36,507
12/8/18 13:36,504
12/8/18 13:36,505
12/8/18 13:36,506
12/8/18 13:36,509
12/8/18 13:36,508
12/8/18 13:36,505
12/8/18 13:36,509
12/8/18 13:36,507
12/8/18 13:36,508
12/8/18 13:36,507
12/8/18 13:36,507
12/8/18 13:36,509
12/8/18 13:36,508
12/8/18 13:36,507
12/8/18 13:36,507
12/8/18 13:36,507
12/8/18 13:36,511
12/8/18 13:36,507
12/8/18 13:36,509
12/8/18 13:36,506
12/8/18 13:36,507
12/8/18 13:36,511
12/8/18 13:36,508
12/8/18 13:36,503
12/8/18 13:36,492
12/8/18 13:36,491
12/8/18 13:36,506
12/8/18 13:36,515
12/8/18 13:36,519
12/8/18 13:36,515
12/8/18 13:36,512
12/8/18 13:36,514
12/8/18 13:36,513
12/8/18 13:36,514
12/8/18 13:36,511
12/8/18 13:36,509
12/8/18 13:36,510
12/8/18 13:36,507
12/8/18 13:36,510
12/8/18 13:36,509
12/8/18 13:36,506
12/8/18 13:36,508
12/8/18 13:36,504
12/8/18 13:36,507
12/8/18 13:36,505
12/8/18 13:36,505
12/8/18 13:36,506
12/8/18 13:36,505
12/8/18 13:36,509
12/8/18 13:36,506
12/8/18 13:36,504
12/8/18 13:36,506
12/8/18 13:36,505
12/8/18 13:36,507
12/8/18 13:36,505
12/8/18 13:36,506
12/8/18 13:36,508
12/8/18 13:36,505
12/8/18 13:36,507
12/8/18 13:36,506
12/8/18 13:36,505
12/8/18 13:36,507
12/8/18 13:36,505
12/8/18 13:36,509
12/8/18 13:36,506
12/8/18 13:36,505
12/8/18 13:36,508
12/8/18 13:36,507
12/8/18 13:36,509
12/8/18 13:36,504
12/8/18 13:36,505
12/8/18 13:36,509
12/8/18 13:36,505
12/8/18 13:36,508
12/8/18 13:36,506
12/8/18 13:36,507
12/8/18 13:36,507
12/8/18 13:36,505
12/8/18 13:36,509
12/8/18 13:36,505
12/8/18 13:36,505
12/8/18 13:36,508
12/8/18 13:36,505
12/8/18 13:36,508
12/8/18 13:36,505
12/8/18 13:36,508
12/8/18 13:36,507
12/8/18 13:36,506
12/8/18 13:36,508
12/8/18 13:36,506
12/8/18 13:36,508
12/8/18 13:36,506
12/8/18 13:36,505
12/8/18 13:36,509
12/8/18 13:36,507
12/8/18 13:36,503
12/8/18 13:36,480
12/8/18 13:45,507
12/8/18 13:45,508
12/8/18 13:45,507
12/8/18 13:45,507
12/8/18 13:45,509
12/8/18 13:45,508
12/8/18 13:45,506
12/8/18 13:45,506
12/8/18 13:45,506
12/8/18 13:45,506
12/8/18 13:45,508
12/8/18 13:45,508
12/8/18 13:45,505
12/8/18 13:45,507
12/8/18 13:45,506
12/8/18 13:45,505
12/8/18 13:45,498
12/8/18 13:45,482
12/8/18 13:45,497
12/8/18 13:45,510
12/8/18 13:45,513
12/8/18 13:45,516
12/8/18 13:45,514
12/8/18 13:45,513
12/8/18 13:45,513
12/8/18 13:45,509
12/8/18 13:45,510
12/8/18 13:45,509
12/8/18 13:45,509
12/8/18 13:45,509
12/8/18 13:45,507
12/8/18 13:45,508
12/8/18 13:45,506
12/8/18 13:45,506
12/8/18 13:45,506
12/8/18 13:45,508
12/8/18 13:45,506
12/8/18 13:45,506
12/8/18 13:45,506
12/8/18 13:45,505
12/8/18 13:45,505
12/8/18 13:45,507
12/8/18 13:45,506
12/8/18 13:45,506
12/8/18 13:45,506
12/8/18 13:45,506
12/8/18 13:45,506
12/8/18 13:45,506
12/8/18 13:45,508
12/8/18 13:45,508
12/8/18 13:45,507
12/8/18 13:45,494
12/8/18 13:45,495
12/8/18 13:45,501
12/8/18 13:45,498
12/8/18 13:45,509
12/8/18 13:45,517
12/8/18 13:45,514
12/8/18 13:45,513
12/8/18 13:45,512
12/8/18 13:45,511
12/8/18 13:45,511
12/8/18 13:45,510
12/8/18 13:45,510
12/8/18 13:45,508
12/8/18 13:45,509
12/8/18 13:45,507
12/8/18 13:45,507
12/8/18 13:45,506
12/8/18 13:45,508
12/8/18 13:45,505
12/8/18 13:45,507
12/8/18 13:45,507
12/8/18 13:45,506
12/8/18 13:45,506
12/8/18 13:45,506
12/8/18 13:45,507
12/8/18 13:45,506
12/8/18 13:45,507
12/8/18 13:45,506
12/8/18 13:45,506
12/8/18 13:45,507
12/8/18 13:45,506
12/8/18 13:45,508
12/8/18 13:45,546
12/8/18 13:45,579
12/8/18 13:45,525
12/8/18 13:45,458
12/8/18 13:45,447
12/8/18 13:45,475
12/8/18 13:45,497
12/8/18 13:45,508
12/8/18 13:45,508
12/8/18 13:45,505
12/8/18 13:45,511
12/8/18 13:45,506
12/8/18 13:45,507
12/8/18 13:45,508
12/8/18 13:45,508
12/8/18 13:45,506
12/8/18 13:45,508
12/8/18 13:45,505
12/8/18 13:45,506
12/8/18 13:45,507
12/8/18 13:45,500
12/8/18 13:45,497
12/8/18 13:45,495
12/8/18 13:45,505
12/8/18 13:45,512
12/8/18 13:45,514
12/8/18 13:45,513
12/8/18 13:45,514
12/8/18 13:45,512
12/8/18 13:45,510
12/8/18 13:45,508
12/8/18 13:45,508
12/8/18 13:45,509
12/8/18 13:45,508
12/8/18 13:45,507
12/8/18 13:45,505
12/8/18 13:45,507
12/8/18 13:45,509
12/8/18 13:45,507
12/8/18 13:45,507
12/8/18 13:45,507
12/8/18 13:45,506
12/8/18 13:45,506
12/8/18 13:45,507
12/8/18 13:45,506
12/8/18 13:45,498
12/8/18 13:45,499
12/8/18 13:45,511
12/8/18 13:45,511
12/8/18 13:45,511
12/8/18 13:45,511
12/8/18 13:45,513
12/8/18 13:45,511
12/8/18 13:45,509
12/8/18 13:45,510
12/8/18 13:45,509
12/8/18 13:45,510
12/8/18 13:45,509
12/8/18 13:45,507
12/8/18 13:45,508
12/8/18 13:45,507
12/8/18 13:45,508
12/8/18 13:45,507
12/8/18 13:45,506
12/8/18 13:45,508
12/8/18 13:45,507
12/8/18 13:45,506
12/8/18 13:45,507
12/8/18 13:45,507
12/8/18 13:45,506
12/8/18 13:45,505
12/8/18 13:45,506
12/8/18 13:45,508
12/8/18 13:45,507
12/8/18 13:45,506
12/8/18 13:45,507
12/8/18 13:45,508
12/8/18 13:45,507
12/8/18 13:45,507
12/8/18 13:45,506
12/8/18 13:45,507
12/8/18 13:45,506
12/8/18 13:45,506
12/8/18 13:45,506
12/8/18 13:45,507
12/8/18 13:45,506
12/8/18 13:45,507
12/8/18 13:45,509
12/8/18 13:45,507
12/8/18 13:45,506
12/8/18 13:45,507
12/8/18 13:45,508
12/8/18 13:45,505
12/8/18 13:45,505
12/8/18 13:45,507
12/8/18 13:45,506
12/8/18 13:45,507
12/8/18 13:45,506
12/8/18 13:45,508
12/8/18 13:45,507
12/8/18 13:45,485
12/8/18 13:45,488
12/8/18 13:45,509
12/8/18 13:45,514
12/8/18 13:45,514
12/8/18 13:45,515
12/8/18 13:45,514
12/8/18 13:45,512
12/8/18 13:45,513
12/8/18 13:45,511
12/8/18 13:45,509
12/8/18 13:45,509
12/8/18 13:45,509
12/8/18 13:45,507
12/8/18 13:45,507
12/8/18 13:45,507
12/8/18 13:45,506
12/8/18 13:45,507
12/8/18 13:45,506
12/8/18 13:45,507
12/8/18 13:45,507
12/8/18 13:45,506
12/8/18 13:45,507
12/8/18 13:45,506
12/8/18 13:45,507
12/8/18 13:45,505
12/8/18 13:45,506
12/8/18 13:45,505
12/8/18 13:45,506
12/8/18 13:45,507
12/8/18 13:45,505
12/8/18 13:45,506
12/8/18 13:45,508
12/8/18 13:45,506
12/8/18 13:45,507
12/8/18 13:45,506
12/8/18 13:45,508
12/8/18 13:45,507
12/8/18 13:45,505
12/8/18 13:45,505
12/8/18 13:45,506
12/8/18 13:45,507
12/8/18 13:45,506
12/8/18 13:45,509
12/8/18 13:45,577
12/8/18 13:45,560
12/8/18 13:45,513
12/8/18 13:45,453
12/8/18 13:45,452
12/8/18 13:45,482
12/8/18 13:45,501
12/8/18 13:45,506
12/8/18 13:45,507
12/8/18 13:45,507
12/8/18 13:45,508
12/8/18 13:45,510
12/8/18 13:45,505
12/8/18 13:45,506
12/8/18 13:45,510
12/8/18 13:45,507
12/8/18 13:45,504
12/8/18 13:45,507
12/8/18 13:45,491
12/8/18 13:45,493
12/8/18 13:45,496
12/8/18 13:45,509
12/8/18 13:45,512
12/8/18 13:45,513
12/8/18 13:45,514
12/8/18 13:45,513
12/8/18 13:45,510
12/8/18 13:45,511
12/8/18 13:45,511
12/8/18 13:45,507
12/8/18 13:45,510
12/8/18 13:45,507
12/8/18 13:45,508
12/8/18 13:45,508
12/8/18 13:45,507
12/8/18 13:45,507
12/8/18 13:45,508
12/8/18 13:45,508
12/8/18 13:45,506
12/8/18 13:45,506
12/8/18 13:45,508
12/8/18 13:45,508
12/8/18 13:45,508
12/8/18 13:45,507
12/8/18 13:45,508
12/8/18 13:45,507
12/8/18 13:45,510
12/8/18 13:45,507
12/8/18 13:45,507
12/8/18 13:45,508
12/8/18 13:45,508
12/8/18 13:45,508
12/8/18 13:45,508
12/8/18 13:45,508
12/8/18 13:45,507
12/8/18 13:45,509
12/8/18 13:45,507
12/8/18 13:45,509
12/8/18 13:45,507
12/8/18 13:45,507
12/8/18 13:45,507
12/8/18 13:45,507
12/8/18 13:45,509
12/8/18 13:45,507
12/8/18 13:45,508
12/8/18 13:45,506
12/8/18 13:45,508
12/8/18 13:45,506
12/8/18 13:45,508
12/8/18 13:45,507
12/8/18 13:45,507
12/8/18 13:45,505
12/8/18 13:45,508
12/8/18 13:45,505
12/8/18 13:45,508
12/8/18 13:45,507
12/8/18 13:45,507
12/8/18 13:45,507
12/8/18 13:45,506
12/8/18 13:45,507
12/8/18 13:45,506
12/8/18 13:45,507
12/8/18 13:45,505
12/8/18 13:45,506
12/8/18 13:45,507
12/8/18 13:45,507
12/8/18 13:45,495
12/8/18 13:45,486
12/8/18 13:45,502
12/8/18 13:45,511
12/8/18 13:45,514
12/8/18 13:45,515
12/8/18 13:45,514
12/8/18 13:45,511
12/8/18 13:45,511
12/8/18 13:45,509
12/8/18 13:45,509
12/8/18 13:45,508
12/8/18 13:45,508
12/8/18 13:45,509
12/8/18 13:45,507
12/8/18 13:45,507
12/8/18 13:45,507
12/8/18 13:45,505
12/8/18 13:45,506
12/8/18 13:45,507
12/8/18 13:45,505
12/8/18 13:45,506
12/8/18 13:45,506
12/8/18 13:45,507
12/8/18 13:45,506
12/8/18 13:45,506
12/8/18 13:45,507
12/8/18 13:45,506
12/8/18 13:45,507
12/8/18 13:45,506
12/8/18 13:45,505
12/8/18 13:45,507
12/8/18 13:45,507
12/8/18 13:45,506
12/8/18 13:45,506
12/8/18 13:45,506
12/8/18 13:45,507
12/8/18 13:45,506
12/8/18 13:45,507
12/8/18 13:45,506
12/8/18 13:45,507
12/8/18 13:45,507
12/8/18 13:45,507
12/8/18 13:45,506
12/8/18 13:45,506
12/8/18 13:45,506
12/8/18 13:45,506
12/8/18 13:45,506
12/8/18 13:45,507
12/8/18 13:45,507
12/8/18 13:45,507
12/8/18 13:45,507
12/8/18 13:45,507
12/8/18 13:45,506
12/8/18 13:45,496
12/8/18 13:45,496
12/8/18 13:45,500
12/8/18 13:45,507
12/8/18 13:45,515
12/8/18 13:45,519
12/8/18 13:45,602
12/8/18 13:45,546
12/8/18 13:45,498
12/8/18 13:45,459
12/8/18 13:45,465
12/8/18 13:45,491
12/8/18 13:45,505
12/8/18 13:45,508
12/8/18 13:45,506
12/8/18 13:45,508
12/8/18 13:45,509
12/8/18 13:45,505
12/8/18 13:45,509
12/8/18 13:45,510
12/8/18 13:45,510
12/8/18 13:45,508
12/8/18 13:45,505
12/8/18 13:45,503
12/8/18 13:45,502
12/8/18 13:45,494
12/8/18 13:45,497
12/8/18 13:45,509
12/8/18 13:45,511
12/8/18 13:45,510
12/8/18 13:45,508
12/8/18 13:45,507
12/8/18 13:45,506
12/8/18 13:45,506
12/8/18 13:45,507
12/8/18 13:45,506
12/8/18 13:45,507
12/8/18 13:45,508
12/8/18 13:45,506
12/8/18 13:45,508
12/8/18 13:45,509
12/8/18 13:45,509
12/8/18 13:45,509
12/8/18 13:45,508
12/8/18 13:45,506
12/8/18 13:45,508
12/8/18 13:45,495
12/8/18 13:45,498
12/8/18 13:45,507
12/8/18 13:45,511
12/8/18 13:45,505
12/8/18 13:45,500
12/8/18 13:45,513
12/8/18 13:45,515
12/8/18 13:45,515
12/8/18 13:45,514
12/8/18 13:45,512
12/8/18 13:45,513
12/8/18 13:45,509
12/8/18 13:45,509
12/8/18 13:45,510
12/8/18 13:45,510
12/8/18 13:45,510
12/8/18 13:45,510
12/8/18 13:45,507
12/8/18 13:45,507
12/8/18 13:45,508
12/8/18 13:45,507
12/8/18 13:45,507
12/8/18 13:45,506
12/8/18 13:45,507
12/8/18 13:45,506
12/8/18 13:45,506
12/8/18 13:45,507
12/8/18 13:45,507
12/8/18 13:45,505
12/8/18 13:45,508
12/8/18 13:45,506
12/8/18 13:45,508
12/8/18 13:45,506
12/8/18 13:45,506
12/8/18 13:45,497
12/8/18 13:45,495
12/8/18 13:45,505
12/8/18 13:45,501
12/8/18 13:45,505
12/8/18 13:45,511
12/8/18 13:45,514
12/8/18 13:45,514
12/8/18 13:45,514
12/8/18 13:45,511
12/8/18 13:45,511
12/8/18 13:45,509
12/8/18 13:45,509
12/8/18 13:45,509
12/8/18 13:45,508
12/8/18 13:45,507
12/8/18 13:45,507
12/8/18 13:45,506
12/8/18 13:45,505
12/8/18 13:45,507
12/8/18 13:45,506
12/8/18 13:45,506
12/8/18 13:45,507
12/8/18 13:45,505
12/8/18 13:45,506
12/8/18 13:45,506
12/8/18 13:45,507
12/8/18 13:45,507
12/8/18 13:45,508
12/8/18 13:45,506
12/8/18 13:45,505
12/8/18 13:45,506
12/8/18 13:45,506
12/8/18 13:45,507
12/8/18 13:45,506
12/8/18 13:45,507
12/8/18 13:45,506
12/8/18 13:45,506
12/8/18 13:45,508
12/8/18 13:45,506
12/8/18 13:45,508
12/8/18 13:45,506
12/8/18 13:45,508
12/8/18 13:45,506
12/8/18 13:45,506
12/8/18 13:45,506
12/8/18 13:45,507
12/8/18 13:45,507
12/8/18 13:45,506
12/8/18 13:45,506
12/8/18 13:45,507
12/8/18 13:45,508
12/8/18 13:45,507
12/8/18 13:45,506
12/8/18 13:45,506
12/8/18 13:45,508
12/8/18 13:45,506
12/8/18 13:45,506
12/8/18 13:45,508
12/8/18 13:45,507
12/8/18 13:45,507
12/8/18 13:45,507
12/8/18 13:45,507
12/8/18 13:45,509
12/8/18 13:45,520
12/8/18 13:45,598
12/8/18 13:45,541
12/8/18 13:45,467
12/8/18 13:45,449
12/8/18 13:45,469
12/8/18 13:45,492
12/8/18 13:45,506
12/8/18 13:45,491
12/8/18 13:45,489
12/8/18 13:45,506
12/8/18 13:45,511
12/8/18 13:45,518
12/8/18 13:45,514
12/8/18 13:45,513
12/8/18 13:45,515
12/8/18 13:45,512
12/8/18 13:45,509
12/8/18 13:45,508
12/8/18 13:45,507
12/8/18 13:45,506
12/8/18 13:45,506
12/8/18 13:45,506
12/8/18 13:45,505
12/8/18 13:45,507
12/8/18 13:45,507
12/8/18 13:45,508
12/8/18 13:45,505
12/8/18 13:45,507
12/8/18 13:45,508
12/8/18 13:45,505
12/8/18 13:45,507
12/8/18 13:45,505
12/8/18 13:45,506
12/8/18 13:45,507
12/8/18 13:45,507
12/8/18 13:45,509
12/8/18 13:45,506
12/8/18 13:45,506
12/8/18 13:45,507
12/8/18 13:45,491
12/8/18 13:45,501
12/8/18 13:45,507
12/8/18 13:45,503
12/8/18 13:45,502
12/8/18 13:45,514
12/8/18 13:45,516
12/8/18 13:45,516
12/8/18 13:45,515
12/8/18 13:45,515
12/8/18 13:45,513
12/8/18 13:45,512
12/8/18 13:45,510
12/8/18 13:45,512
12/8/18 13:45,508
12/8/18 13:45,509
12/8/18 13:45,507
12/8/18 13:45,507
12/8/18 13:45,507
12/8/18 13:45,507
12/8/18 13:45,508
12/8/18 13:45,506
12/8/18 13:45,508
12/8/18 13:45,507
12/8/18 13:45,505
12/8/18 13:45,506
12/8/18 13:45,506
12/8/18 13:45,507
12/8/18 13:45,506
12/8/18 13:45,505
12/8/18 13:45,507
12/8/18 13:45,506
12/8/18 13:45,507
12/8/18 13:45,507
12/8/18 13:45,507
12/8/18 13:45,506
12/8/18 13:45,507
12/8/18 13:45,493
12/8/18 13:45,498
12/8/18 13:45,505
12/8/18 13:45,510
12/8/18 13:45,510
12/8/18 13:45,511
12/8/18 13:45,510
12/8/18 13:45,509
12/8/18 13:45,509
12/8/18 13:45,510
12/8/18 13:54,508
12/8/18 13:54,507
12/8/18 13:54,507
12/8/18 13:54,508
12/8/18 13:54,507
12/8/18 13:54,509
12/8/18 13:54,507
12/8/18 13:54,508
12/8/18 13:54,507
12/8/18 13:54,509
12/8/18 13:54,506
12/8/18 13:54,506
12/8/18 13:54,506
12/8/18 13:54,506
12/8/18 13:54,507
12/8/18 13:54,507
12/8/18 13:54,507
12/8/18 13:54,506
12/8/18 13:54,506
12/8/18 13:54,507
12/8/18 13:54,506
12/8/18 13:54,506
12/8/18 13:54,507
12/8/18 13:54,499
12/8/18 13:54,489
12/8/18 13:54,495
12/8/18 13:54,508
12/8/18 13:54,513
12/8/18 13:54,516
12/8/18 13:54,514
12/8/18 13:54,513
12/8/18 13:54,511
12/8/18 13:54,510
12/8/18 13:54,510
12/8/18 13:54,509
12/8/18 13:54,509
12/8/18 13:54,507
12/8/18 13:54,508
12/8/18 13:54,507
12/8/18 13:54,506
12/8/18 13:54,506
12/8/18 13:54,507
12/8/18 13:54,506
12/8/18 13:54,506
12/8/18 13:54,506
12/8/18 13:54,506
12/8/18 13:54,506
12/8/18 13:54,506
12/8/18 13:54,505
12/8/18 13:54,506
12/8/18 13:54,507
12/8/18 13:54,506
12/8/18 13:54,506
12/8/18 13:54,507
12/8/18 13:54,505
12/8/18 13:54,508
12/8/18 13:54,507
12/8/18 13:54,506
12/8/18 13:54,505
12/8/18 13:54,507
12/8/18 13:54,508
12/8/18 13:54,507
12/8/18 13:54,508
12/8/18 13:54,508
12/8/18 13:54,508
12/8/18 13:54,506
12/8/18 13:54,507
12/8/18 13:54,506
12/8/18 13:54,506
12/8/18 13:54,506
12/8/18 13:54,506
12/8/18 13:54,506
12/8/18 13:54,507
12/8/18 13:54,508
12/8/18 13:54,507
12/8/18 13:54,506
12/8/18 13:54,506
12/8/18 13:54,507
12/8/18 13:54,507
12/8/18 13:54,508
12/8/18 13:54,508
12/8/18 13:54,508
12/8/18 13:54,506
12/8/18 13:54,506
12/8/18 13:54,507
12/8/18 13:54,507
12/8/18 13:54,507
12/8/18 13:54,507
12/8/18 13:54,518
12/8/18 13:54,605
12/8/18 13:54,542
12/8/18 13:54,467
12/8/18 13:54,446
12/8/18 13:54,451
12/8/18 13:54,473
12/8/18 13:54,504
12/8/18 13:54,511
12/8/18 13:54,497
12/8/18 13:54,502
12/8/18 13:54,515
12/8/18 13:54,518
12/8/18 13:54,523
12/8/18 13:54,517
12/8/18 13:54,514
12/8/18 13:54,516
12/8/18 13:54,511
12/8/18 13:54,508
12/8/18 13:54,505
12/8/18 13:54,505
12/8/18 13:54,506
12/8/18 13:54,507
12/8/18 13:54,508
12/8/18 13:54,506
12/8/18 13:54,505
12/8/18 13:54,506
12/8/18 13:54,506
12/8/18 13:54,507
12/8/18 13:54,507
12/8/18 13:54,508
12/8/18 13:54,506
12/8/18 13:54,506
12/8/18 13:54,507
12/8/18 13:54,506
12/8/18 13:54,506
12/8/18 13:54,508
12/8/18 13:54,506
12/8/18 13:54,507
12/8/18 13:54,505
12/8/18 13:54,507
12/8/18 13:54,507
12/8/18 13:54,505
12/8/18 13:54,489
12/8/18 13:54,493
12/8/18 13:54,505
12/8/18 13:54,515
12/8/18 13:54,518
12/8/18 13:54,518
12/8/18 13:54,516
12/8/18 13:54,514
12/8/18 13:54,514
12/8/18 13:54,512
12/8/18 13:54,510
12/8/18 13:54,510
12/8/18 13:54,509
12/8/18 13:54,508
12/8/18 13:54,509
12/8/18 13:54,510
12/8/18 13:54,508
12/8/18 13:54,507
12/8/18 13:54,508
12/8/18 13:54,506
12/8/18 13:54,507
12/8/18 13:54,506
12/8/18 13:54,506
12/8/18 13:54,505
12/8/18 13:54,506
12/8/18 13:54,508
12/8/18 13:54,506
12/8/18 13:54,506
12/8/18 13:54,506
12/8/18 13:54,506
12/8/18 13:54,507
12/8/18 13:54,505
12/8/18 13:54,506
12/8/18 13:54,506
12/8/18 13:54,506
12/8/18 13:54,507
12/8/18 13:54,506
12/8/18 13:54,507
12/8/18 13:54,505
12/8/18 13:54,506
12/8/18 13:54,507
12/8/18 13:54,507
12/8/18 13:54,506
12/8/18 13:54,506
12/8/18 13:54,498
12/8/18 13:54,496
12/8/18 13:54,508
12/8/18 13:54,494
12/8/18 13:54,501
12/8/18 13:54,510
12/8/18 13:54,516
12/8/18 13:54,516
12/8/18 13:54,514
12/8/18 13:54,513
12/8/18 13:54,513
12/8/18 13:54,511
12/8/18 13:54,511
12/8/18 13:54,508
12/8/18 13:54,508
12/8/18 13:54,508
12/8/18 13:54,508
12/8/18 13:54,505
12/8/18 13:54,507
12/8/18 13:54,505
12/8/18 13:54,506
12/8/18 13:54,504
12/8/18 13:54,495
12/8/18 13:54,499
12/8/18 13:54,510
12/8/18 13:54,509
12/8/18 13:54,509
12/8/18 13:54,509
12/8/18 13:54,500
12/8/18 13:54,495
12/8/18 13:54,506
12/8/18 13:54,511
12/8/18 13:54,514
12/8/18 13:54,512
12/8/18 13:54,511
12/8/18 13:54,510
12/8/18 13:54,510
12/8/18 13:54,509
12/8/18 13:54,507
12/8/18 13:54,507
12/8/18 13:54,508
12/8/18 13:54,496
12/8/18 13:54,499
12/8/18 13:54,509
12/8/18 13:54,510
12/8/18 13:54,511
12/8/18 13:54,508
12/8/18 13:54,508
12/8/18 13:54,510
12/8/18 13:54,508
12/8/18 13:54,510
12/8/18 13:54,507
12/8/18 13:54,509
12/8/18 13:54,507
12/8/18 13:54,506
12/8/18 13:54,507
12/8/18 13:54,507
12/8/18 13:54,507
12/8/18 13:54,509
12/8/18 13:54,610
12/8/18 13:54,548
12/8/18 13:54,486
12/8/18 13:54,447
12/8/18 13:54,455
12/8/18 13:54,488
12/8/18 13:54,505
12/8/18 13:54,505
12/8/18 13:54,506
12/8/18 13:54,505
12/8/18 13:54,504
12/8/18 13:54,508
12/8/18 13:54,506
12/8/18 13:54,507
12/8/18 13:54,483
12/8/18 13:54,489
12/8/18 13:54,506
12/8/18 13:54,515
12/8/18 13:54,514
12/8/18 13:54,513
12/8/18 13:54,511
12/8/18 13:54,509
12/8/18 13:54,510
12/8/18 13:54,511
12/8/18 13:54,509
12/8/18 13:54,508
12/8/18 13:54,508
12/8/18 13:54,508
12/8/18 13:54,507
12/8/18 13:54,507
12/8/18 13:54,508
12/8/18 13:54,508
12/8/18 13:54,508
12/8/18 13:54,507
12/8/18 13:54,507
12/8/18 13:54,507
12/8/18 13:54,507
12/8/18 13:54,507
12/8/18 13:54,508
12/8/18 13:54,508
12/8/18 13:54,507
12/8/18 13:54,508
12/8/18 13:54,508
12/8/18 13:54,506
12/8/18 13:54,508
12/8/18 13:54,509
12/8/18 13:54,507
12/8/18 13:54,509
12/8/18 13:54,509
12/8/18 13:54,508
12/8/18 13:54,509
12/8/18 13:54,508
12/8/18 13:54,509
12/8/18 13:54,509
12/8/18 13:54,507
12/8/18 13:54,507
12/8/18 13:54,508
12/8/18 13:54,507
12/8/18 13:54,508
12/8/18 13:54,507
12/8/18 13:54,509
12/8/18 13:54,508
12/8/18 13:54,507
12/8/18 13:54,508
12/8/18 13:54,506
12/8/18 13:54,508
12/8/18 13:54,508
12/8/18 13:54,507
12/8/18 13:54,508
12/8/18 13:54,509
12/8/18 13:54,507
12/8/18 13:54,492
12/8/18 13:54,493
12/8/18 13:54,495
12/8/18 13:54,512
12/8/18 13:54,515
12/8/18 13:54,516
12/8/18 13:54,515
12/8/18 13:54,515
12/8/18 13:54,513
12/8/18 13:54,513
12/8/18 13:54,511
12/8/18 13:54,507
12/8/18 13:54,509
12/8/18 13:54,509
12/8/18 13:54,509
12/8/18 13:54,506
12/8/18 13:54,507
12/8/18 13:54,508
12/8/18 13:54,504
12/8/18 13:54,506
12/8/18 13:54,505
12/8/18 13:54,491
12/8/18 13:54,499
12/8/18 13:54,506
12/8/18 13:54,510
12/8/18 13:54,511
12/8/18 13:54,510
12/8/18 13:54,510
12/8/18 13:54,508
12/8/18 13:54,509
12/8/18 13:54,508
12/8/18 13:54,507
12/8/18 13:54,508
12/8/18 13:54,507
12/8/18 13:54,506
12/8/18 13:54,506
12/8/18 13:54,506
12/8/18 13:54,507
12/8/18 13:54,506
12/8/18 13:54,506
12/8/18 13:54,506
12/8/18 13:54,507
12/8/18 13:54,506
12/8/18 13:54,507
12/8/18 13:54,507
12/8/18 13:54,506
12/8/18 13:54,506
12/8/18 13:54,505
12/8/18 13:54,507
12/8/18 13:54,505
12/8/18 13:54,507
12/8/18 13:54,507
12/8/18 13:54,507
12/8/18 13:54,491
12/8/18 13:54,495
12/8/18 13:54,494
12/8/18 13:54,512
12/8/18 13:54,517
12/8/18 13:54,515
12/8/18 13:54,516
12/8/18 13:54,513
12/8/18 13:54,514
12/8/18 13:54,510
12/8/18 13:54,509
12/8/18 13:54,509
12/8/18 13:54,507
12/8/18 13:54,508
12/8/18 13:54,509
12/8/18 13:54,507
12/8/18 13:54,506
12/8/18 13:54,507
12/8/18 13:54,506
12/8/18 13:54,507
12/8/18 13:54,506
12/8/18 13:54,506
12/8/18 13:54,518
12/8/18 13:54,609
12/8/18 13:54,545
12/8/18 13:54,466
12/8/18 13:54,446
12/8/18 13:54,467
12/8/18 13:54,491
12/8/18 13:54,506
12/8/18 13:54,504
12/8/18 13:54,505
12/8/18 13:54,504
12/8/18 13:54,510
12/8/18 13:54,505
12/8/18 13:54,509
12/8/18 13:54,510
12/8/18 13:54,507
12/8/18 13:54,506
12/8/18 13:54,505
12/8/18 13:54,506
12/8/18 13:54,506
12/8/18 13:54,498
12/8/18 13:54,492
12/8/18 13:54,500
12/8/18 13:54,497
12/8/18 13:54,508
12/8/18 13:54,512
12/8/18 13:54,515
12/8/18 13:54,515
12/8/18 13:54,510
12/8/18 13:54,513
12/8/18 13:54,510
12/8/18 13:54,509
12/8/18 13:54,509
12/8/18 13:54,508
12/8/18 13:54,509
12/8/18 13:54,507
12/8/18 13:54,508
12/8/18 13:54,508
12/8/18 13:54,508
12/8/18 13:54,509
12/8/18 13:54,507
12/8/18 13:54,506
12/8/18 13:54,507
12/8/18 13:54,507
12/8/18 13:54,506
12/8/18 13:54,506
12/8/18 13:54,507
12/8/18 13:54,509
12/8/18 13:54,508
12/8/18 13:54,508
12/8/18 13:54,507
12/8/18 13:54,509
12/8/18 13:54,508
12/8/18 13:54,506
12/8/18 13:54,507
12/8/18 13:54,508
12/8/18 13:54,508
12/8/18 13:54,508
12/8/18 13:54,508
12/8/18 13:54,507
12/8/18 13:54,506
12/8/18 13:54,509
12/8/18 13:54,507
12/8/18 13:54,507
12/8/18 13:54,508
12/8/18 13:54,509
12/8/18 13:54,508
12/8/18 13:54,506
12/8/18 13:54,507
12/8/18 13:54,506
12/8/18 13:54,507
12/8/18 13:54,508
12/8/18 13:54,507
12/8/18 13:54,507
12/8/18 13:54,507
12/8/18 13:54,507
12/8/18 13:54,506
12/8/18 13:54,505
12/8/18 13:54,508
12/8/18 13:54,503
12/8/18 13:54,491
12/8/18 13:54,502
12/8/18 13:54,509
12/8/18 13:54,511
12/8/18 13:54,510
12/8/18 13:54,510
12/8/18 13:54,508
12/8/18 13:54,497
12/8/18 13:54,507
12/8/18 13:54,512
12/8/18 13:54,512
12/8/18 13:54,511
12/8/18 13:54,510
12/8/18 13:54,510
12/8/18 13:54,509
12/8/18 13:54,509
12/8/18 13:54,509
12/8/18 13:54,506
12/8/18 13:54,507
12/8/18 13:54,506
12/8/18 13:54,506
12/8/18 13:54,506
12/8/18 13:54,507
12/8/18 13:54,506
12/8/18 13:54,506
12/8/18 13:54,507
12/8/18 13:54,507
12/8/18 13:54,506
12/8/18 13:54,505
12/8/18 13:54,507
12/8/18 13:54,507
12/8/18 13:54,508
12/8/18 13:54,506
12/8/18 13:54,506
12/8/18 13:54,506
12/8/18 13:54,505
12/8/18 13:54,507
12/8/18 13:54,506
12/8/18 13:54,506
12/8/18 13:54,507
12/8/18 13:54,507
12/8/18 13:54,506
12/8/18 13:54,505
12/8/18 13:54,506
12/8/18 13:54,507
12/8/18 13:54,506
12/8/18 13:54,507
12/8/18 13:54,506
12/8/18 13:54,507
12/8/18 13:54,507
12/8/18 13:54,506
12/8/18 13:54,508
12/8/18 13:54,505
12/8/18 13:54,507
12/8/18 13:54,506
12/8/18 13:54,507
12/8/18 13:54,508
12/8/18 13:54,508
12/8/18 13:54,508
12/8/18 13:54,506
12/8/18 13:54,507
12/8/18 13:54,508
12/8/18 13:54,506
12/8/18 13:54,506
12/8/18 13:54,510
12/8/18 13:54,613
12/8/18 13:54,547
12/8/18 13:54,480
12/8/18 13:54,445
12/8/18 13:54,446
12/8/18 13:54,481
12/8/18 13:54,505
12/8/18 13:54,511
12/8/18 13:54,503
12/8/18 13:54,503
12/8/18 13:54,513
12/8/18 13:54,511
12/8/18 13:54,514
12/8/18 13:54,517
12/8/18 13:54,510
12/8/18 13:54,508
12/8/18 13:54,508
12/8/18 13:54,509
12/8/18 13:54,508
12/8/18 13:54,508
12/8/18 13:54,507
12/8/18 13:54,506
12/8/18 13:54,506
12/8/18 13:54,505
12/8/18 13:54,508
12/8/18 13:54,506
12/8/18 13:54,506
12/8/18 13:54,505
12/8/18 13:54,505
12/8/18 13:54,505
12/8/18 13:54,507
12/8/18 13:54,506
12/8/18 13:54,507
12/8/18 13:54,506
12/8/18 13:54,507
12/8/18 13:54,507
12/8/18 13:54,506
12/8/18 13:54,506
12/8/18 13:54,507
12/8/18 13:54,507
12/8/18 13:54,508
12/8/18 13:54,508
12/8/18 13:54,509
12/8/18 13:54,509
12/8/18 13:54,497
12/8/18 13:54,496
12/8/18 13:54,507
12/8/18 13:54,510
12/8/18 13:54,511
12/8/18 13:54,514
12/8/18 13:54,514
12/8/18 13:54,510
12/8/18 13:54,498
12/8/18 13:54,506
12/8/18 13:54,512
12/8/18 13:54,514
12/8/18 13:54,513
12/8/18 13:54,509
12/8/18 13:54,510
12/8/18 13:54,511
12/8/18 13:54,509
12/8/18 13:54,509
12/8/18 13:54,509
12/8/18 13:54,509
12/8/18 13:54,506
12/8/18 13:54,507
12/8/18 13:54,509
12/8/18 13:54,507
12/8/18 13:54,508
12/8/18 13:54,507
12/8/18 13:54,506
12/8/18 13:54,507
12/8/18 13:54,505
12/8/18 13:54,506
12/8/18 13:54,506
12/8/18 14:03,510
12/8/18 14:03,510
12/8/18 14:03,513
12/8/18 14:03,509
12/8/18 14:03,508
12/8/18 14:03,508
12/8/18 14:03,508
12/8/18 14:03,509
12/8/18 14:03,509
12/8/18 14:03,508
12/8/18 14:03,508
12/8/18 14:03,506
12/8/18 14:03,507
12/8/18 14:03,508
12/8/18 14:03,505
12/8/18 14:03,507
12/8/18 14:03,506
12/8/18 14:03,506
12/8/18 14:03,507
12/8/18 14:03,506
12/8/18 14:03,508
12/8/18 14:03,504
12/8/18 14:03,509
12/8/18 14:03,507
12/8/18 14:03,505
12/8/18 14:03,509
12/8/18 14:03,505
12/8/18 14:03,506
12/8/18 14:03,506
12/8/18 14:03,506
12/8/18 14:03,509
12/8/18 14:03,506
12/8/18 14:03,507
12/8/18 14:03,506
12/8/18 14:03,506
12/8/18 14:03,509
12/8/18 14:03,505
12/8/18 14:03,508
12/8/18 14:03,505
12/8/18 14:03,506
12/8/18 14:03,499
12/8/18 14:03,499
12/8/18 14:03,507
12/8/18 14:03,508
12/8/18 14:03,511
12/8/18 14:03,511
12/8/18 14:03,507
12/8/18 14:03,510
12/8/18 14:03,508
12/8/18 14:03,508
12/8/18 14:03,509
12/8/18 14:03,507
12/8/18 14:03,509
12/8/18 14:03,506
12/8/18 14:03,507
12/8/18 14:03,509
12/8/18 14:03,504
12/8/18 14:03,508
12/8/18 14:03,506
12/8/18 14:03,507
12/8/18 14:03,507
12/8/18 14:03,506
12/8/18 14:03,506
12/8/18 14:03,506
12/8/18 14:03,507
12/8/18 14:03,509
12/8/18 14:03,504
12/8/18 14:03,508
12/8/18 14:03,506
12/8/18 14:03,506
12/8/18 14:03,507
12/8/18 14:03,506
12/8/18 14:03,507
12/8/18 14:03,506
12/8/18 14:03,505
12/8/18 14:03,509
12/8/18 14:03,505
12/8/18 14:03,509
12/8/18 14:03,506
12/8/18 14:03,506
12/8/18 14:03,509
12/8/18 14:03,506
12/8/18 14:03,509
12/8/18 14:03,507
12/8/18 14:03,508
12/8/18 14:03,525
12/8/18 14:03,599
12/8/18 14:03,540
12/8/18 14:03,459
12/8/18 14:03,448
12/8/18 14:03,474
12/8/18 14:03,493
12/8/18 14:03,506
12/8/18 14:03,505
12/8/18 14:03,505
12/8/18 14:03,505
12/8/18 14:03,513
12/8/18 14:03,509
12/8/18 14:03,503
12/8/18 14:03,514
12/8/18 14:03,511
12/8/18 14:03,504
12/8/18 14:03,506
12/8/18 14:03,505
12/8/18 14:03,501
12/8/18 14:03,498
12/8/18 14:03,501
12/8/18 14:03,509
12/8/18 14:03,509
12/8/18 14:03,510
12/8/18 14:03,510
12/8/18 14:03,507
12/8/18 14:03,507
12/8/18 14:03,498
12/8/18 14:03,508
12/8/18 14:03,509
12/8/18 14:03,510
12/8/18 14:03,509
12/8/18 14:03,508
12/8/18 14:03,509
12/8/18 14:03,509
12/8/18 14:03,509
12/8/18 14:03,508
12/8/18 14:03,507
12/8/18 14:03,509
12/8/18 14:03,498
12/8/18 14:03,505
12/8/18 14:03,510
12/8/18 14:03,509
12/8/18 14:03,510
12/8/18 14:03,498
12/8/18 14:03,504
12/8/18 14:03,510
12/8/18 14:03,513
12/8/18 14:03,514
12/8/18 14:03,511
12/8/18 14:03,510
12/8/18 14:03,512
12/8/18 14:03,510
12/8/18 14:03,513
12/8/18 14:03,507
12/8/18 14:03,508
12/8/18 14:03,508
12/8/18 14:03,507
12/8/18 14:03,509
12/8/18 14:03,506
12/8/18 14:03,508
12/8/18 14:03,509
12/8/18 14:03,506
12/8/18 14:03,509
12/8/18 14:03,508
12/8/18 14:03,507
12/8/18 14:03,507
12/8/18 14:03,506
12/8/18 14:03,508
12/8/18 14:03,505
12/8/18 14:03,507
12/8/18 14:03,507
12/8/18 14:03,505
12/8/18 14:03,507
12/8/18 14:03,505
12/8/18 14:03,507
12/8/18 14:03,507
12/8/18 14:03,506
12/8/18 14:03,508
12/8/18 14:03,506
12/8/18 14:03,506
12/8/18 14:03,507
12/8/18 14:03,505
12/8/18 14:03,507
12/8/18 14:03,506
12/8/18 14:03,506
12/8/18 14:03,507
12/8/18 14:03,506
12/8/18 14:03,508
12/8/18 14:03,505
12/8/18 14:03,508
12/8/18 14:03,508
12/8/18 14:03,506
12/8/18 14:03,508
12/8/18 14:03,506
12/8/18 14:03,506
12/8/18 14:03,508
12/8/18 14:03,505
12/8/18 14:03,508
12/8/18 14:03,504
12/8/18 14:03,506
12/8/18 14:03,508
12/8/18 14:03,507
12/8/18 14:03,508
12/8/18 14:03,506
12/8/18 14:03,507
12/8/18 14:03,506
12/8/18 14:03,506
12/8/18 14:03,509
12/8/18 14:03,505
12/8/18 14:03,507
12/8/18 14:03,508
12/8/18 14:03,505
12/8/18 14:03,508
12/8/18 14:03,506
12/8/18 14:03,508
12/8/18 14:03,508
12/8/18 14:03,506
12/8/18 14:03,510
12/8/18 14:03,506
12/8/18 14:03,507
12/8/18 14:03,507
12/8/18 14:03,506
12/8/18 14:03,508
12/8/18 14:03,506
12/8/18 14:03,507
12/8/18 14:03,507
12/8/18 14:03,507
12/8/18 14:03,508
12/8/18 14:03,506
12/8/18 14:03,508
12/8/18 14:03,506
12/8/18 14:03,506
12/8/18 14:03,509
12/8/18 14:03,505
12/8/18 14:03,509
12/8/18 14:03,507
12/8/18 14:03,506
12/8/18 14:03,501
12/8/18 14:03,497
12/8/18 14:03,497
12/8/18 14:03,532
12/8/18 14:03,597
12/8/18 14:03,539
12/8/18 14:03,462
12/8/18 14:03,454
12/8/18 14:03,477
12/8/18 14:03,497
12/8/18 14:03,509
12/8/18 14:03,510
12/8/18 14:03,508
12/8/18 14:03,505
12/8/18 14:03,514
12/8/18 14:03,508
12/8/18 14:03,505
12/8/18 14:03,512
12/8/18 14:03,509
12/8/18 14:03,508
12/8/18 14:03,505
12/8/18 14:03,504
12/8/18 14:03,508
12/8/18 14:03,507
12/8/18 14:03,506
12/8/18 14:03,504
12/8/18 14:03,501
12/8/18 14:03,505
12/8/18 14:03,505
12/8/18 14:03,506
12/8/18 14:03,504
12/8/18 14:03,504
12/8/18 14:03,507
12/8/18 14:03,505
12/8/18 14:03,487
12/8/18 14:03,499
12/8/18 14:03,509
12/8/18 14:03,514
12/8/18 14:03,512
12/8/18 14:03,513
12/8/18 14:03,514
12/8/18 14:03,509
12/8/18 14:03,513
12/8/18 14:03,509
12/8/18 14:03,511
12/8/18 14:03,510
12/8/18 14:03,507
12/8/18 14:03,510
12/8/18 14:03,508
12/8/18 14:03,509
12/8/18 14:03,508
12/8/18 14:03,507
12/8/18 14:03,510
12/8/18 14:03,505
12/8/18 14:03,497
12/8/18 14:03,504
12/8/18 14:03,508
12/8/18 14:03,514
12/8/18 14:03,510
12/8/18 14:03,512
12/8/18 14:03,511
12/8/18 14:03,508
12/8/18 14:03,510
12/8/18 14:03,507
12/8/18 14:03,509
12/8/18 14:03,509
12/8/18 14:03,507
12/8/18 14:03,508
12/8/18 14:03,504
12/8/18 14:03,509
12/8/18 14:03,508
12/8/18 14:03,505
12/8/18 14:03,508
12/8/18 14:03,505
12/8/18 14:03,506
12/8/18 14:03,508
12/8/18 14:03,507
12/8/18 14:03,506
12/8/18 14:03,505
12/8/18 14:03,506
12/8/18 14:03,509
12/8/18 14:03,506
12/8/18 14:03,507
12/8/18 14:03,504
12/8/18 14:03,508
12/8/18 14:03,505
12/8/18 14:03,506
12/8/18 14:03,509
12/8/18 14:03,505
12/8/18 14:03,509
12/8/18 14:03,505
12/8/18 14:03,507
12/8/18 14:03,508
12/8/18 14:03,505
12/8/18 14:03,508
12/8/18 14:03,506
12/8/18 14:03,507
12/8/18 14:03,506
12/8/18 14:03,505
12/8/18 14:03,500
12/8/18 14:03,500
12/8/18 14:03,507
12/8/18 14:03,510
12/8/18 14:03,509
12/8/18 14:03,508
12/8/18 14:03,509
12/8/18 14:03,507
12/8/18 14:03,508
12/8/18 14:03,507
12/8/18 14:03,509
12/8/18 14:03,507
12/8/18 14:03,506
12/8/18 14:03,508
12/8/18 14:03,507
12/8/18 14:03,507
12/8/18 14:03,507
12/8/18 14:03,506
12/8/18 14:03,507
12/8/18 14:03,507
12/8/18 14:03,508
12/8/18 14:03,506
12/8/18 14:03,508
12/8/18 14:03,507
12/8/18 14:03,506
12/8/18 14:03,509
12/8/18 14:03,506
12/8/18 14:03,506
12/8/18 14:03,507
12/8/18 14:03,507
12/8/18 14:03,507
12/8/18 14:03,507
12/8/18 14:03,507
12/8/18 14:03,508
12/8/18 14:03,505
12/8/18 14:03,508
12/8/18 14:03,507
12/8/18 14:03,507
12/8/18 14:03,508
12/8/18 14:03,505
12/8/18 14:03,508
12/8/18 14:03,506
12/8/18 14:03,507
12/8/18 14:03,509
12/8/18 14:03,506
12/8/18 14:03,508
12/8/18 14:03,509
12/8/18 14:03,525
12/8/18 14:03,597
12/8/18 14:03,534
12/8/18 14:03,462
12/8/18 14:03,448
12/8/18 14:03,472
12/8/18 14:03,495
12/8/18 14:03,503
12/8/18 14:03,507
12/8/18 14:03,504
12/8/18 14:03,504
12/8/18 14:03,512
12/8/18 14:03,507
12/8/18 14:03,509
12/8/18 14:03,507
12/8/18 14:03,510
12/8/18 14:03,496
12/8/18 14:03,491
12/8/18 14:03,501
12/8/18 14:03,508
12/8/18 14:03,512
12/8/18 14:03,510
12/8/18 14:03,510
12/8/18 14:03,513
12/8/18 14:03,509
12/8/18 14:03,511
12/8/18 14:03,509
12/8/18 14:03,509
12/8/18 14:03,508
12/8/18 14:03,506
12/8/18 14:03,509
12/8/18 14:03,507
12/8/18 14:03,507
12/8/18 14:03,507
12/8/18 14:03,505
12/8/18 14:03,507
12/8/18 14:03,508
12/8/18 14:03,508
12/8/18 14:03,508
12/8/18 14:03,506
12/8/18 14:03,506
12/8/18 14:03,497
12/8/18 14:03,503
12/8/18 14:03,510
12/8/18 14:03,509
12/8/18 14:03,513
12/8/18 14:03,512
12/8/18 14:03,509
12/8/18 14:03,512
12/8/18 14:03,509
12/8/18 14:03,510
12/8/18 14:03,508
12/8/18 14:03,508
12/8/18 14:03,506
12/8/18 14:03,497
12/8/18 14:03,508
12/8/18 14:03,508
12/8/18 14:03,511
12/8/18 14:03,509
12/8/18 14:03,509
12/8/18 14:03,514
12/8/18 14:03,507
12/8/18 14:03,509
12/8/18 14:03,508
12/8/18 14:03,506
12/8/18 14:03,509
12/8/18 14:03,505
12/8/18 14:03,506
12/8/18 14:03,508
12/8/18 14:03,505
12/8/18 14:03,509
12/8/18 14:03,507
12/8/18 14:03,507
12/8/18 14:03,508
12/8/18 14:03,505
12/8/18 14:03,509
12/8/18 14:03,506
12/8/18 14:03,507
12/8/18 14:03,506
12/8/18 14:03,503
12/8/18 14:03,499
12/8/18 14:03,498
12/8/18 14:03,507
12/8/18 14:03,511
12/8/18 14:03,507
12/8/18 14:03,502
12/8/18 14:03,505
12/8/18 14:03,513
12/8/18 14:03,511
12/8/18 14:03,509
12/8/18 14:03,510
12/8/18 14:03,507
12/8/18 14:03,510
12/8/18 14:03,508
12/8/18 14:03,508
12/8/18 14:03,507
12/8/18 14:03,505
12/8/18 14:03,508
12/8/18 14:03,507
12/8/18 14:03,506
12/8/18 14:03,506
12/8/18 14:03,504
12/8/18 14:03,507
12/8/18 14:03,506
12/8/18 14:03,505
12/8/18 14:03,508
12/8/18 14:03,506
12/8/18 14:03,508
12/8/18 14:03,505
12/8/18 14:03,505
12/8/18 14:03,508
12/8/18 14:03,506
12/8/18 14:03,508
12/8/18 14:03,506
12/8/18 14:03,505
12/8/18 14:03,508
12/8/18 14:03,506
12/8/18 14:03,506
12/8/18 14:03,507
12/8/18 14:03,507
12/8/18 14:03,508
12/8/18 14:03,505
12/8/18 14:03,508
12/8/18 14:03,507
12/8/18 14:03,505
12/8/18 14:03,507
12/8/18 14:03,505
12/8/18 14:03,506
12/8/18 14:03,500
12/8/18 14:03,497
12/8/18 14:03,510
12/8/18 14:03,508
12/8/18 14:03,508
12/8/18 14:03,499
12/8/18 14:03,505
12/8/18 14:03,510
12/8/18 14:03,510
12/8/18 14:03,513
12/8/18 14:03,510
12/8/18 14:03,511
12/8/18 14:03,513
12/8/18 14:03,511
12/8/18 14:03,613
12/8/18 14:03,546
12/8/18 14:03,481
12/8/18 14:03,449
12/8/18 14:03,462
12/8/18 14:03,494
12/8/18 14:03,501
12/8/18 14:03,507
12/8/18 14:03,506
12/8/18 14:03,504
12/8/18 14:03,511
12/8/18 14:03,504
12/8/18 14:03,505
12/8/18 14:03,510
12/8/18 14:03,505
12/8/18 14:03,505
12/8/18 14:03,503
12/8/18 14:03,508
12/8/18 14:03,509
12/8/18 14:03,506
12/8/18 14:03,508
12/8/18 14:03,506
12/8/18 14:03,506
12/8/18 14:03,505
12/8/18 14:03,505
12/8/18 14:03,507
12/8/18 14:03,505
12/8/18 14:03,508
12/8/18 14:03,506
12/8/18 14:03,506
12/8/18 14:03,507
12/8/18 14:03,507
12/8/18 14:03,507
12/8/18 14:03,506
12/8/18 14:03,507
12/8/18 14:03,508
12/8/18 14:03,505
12/8/18 14:03,508
12/8/18 14:03,506
12/8/18 14:03,496
12/8/18 14:03,505
12/8/18 14:03,507
12/8/18 14:03,511
12/8/18 14:03,512
12/8/18 14:03,511
12/8/18 14:03,512
12/8/18 14:03,510
12/8/18 14:03,510
12/8/18 14:03,509
12/8/18 14:03,508
12/8/18 14:03,511
12/8/18 14:03,507
12/8/18 14:03,509
12/8/18 14:03,508
12/8/18 14:03,507
12/8/18 14:03,510
12/8/18 14:03,506
12/8/18 14:03,509
12/8/18 14:03,509
12/8/18 14:03,507
12/8/18 14:03,510
12/8/18 14:03,505
12/8/18 14:03,510
12/8/18 14:03,508
12/8/18 14:03,507
12/8/18 14:03,509
12/8/18 14:03,506
12/8/18 14:03,509
12/8/18 14:03,506
12/8/18 14:03,507
12/8/18 14:03,508
12/8/18 14:03,506
12/8/18 14:03,504
12/8/18 14:03,497
12/8/18 14:03,505
12/8/18 14:03,509
12/8/18 14:03,508
12/8/18 14:03,509
12/8/18 14:03,509
12/8/18 14:03,509
12/8/18 14:03,509
12/8/18 14:03,506
12/8/18 14:03,509
12/8/18 14:03,506
12/8/18 14:03,507
12/8/18 14:03,509
12/8/18 14:03,505
12/8/18 14:03,507
12/8/18 14:12,507
12/8/18 14:12,507
12/8/18 14:12,506
12/8/18 14:12,507
12/8/18 14:12,507
12/8/18 14:12,506
12/8/18 14:12,505
12/8/18 14:12,506
12/8/18 14:12,507
12/8/18 14:12,507
12/8/18 14:12,507
12/8/18 14:12,507
12/8/18 14:12,507
12/8/18 14:12,508
12/8/18 14:12,507
12/8/18 14:12,508
12/8/18 14:12,557
12/8/18 14:12,577
12/8/18 14:12,525
12/8/18 14:12,452
12/8/18 14:12,448
12/8/18 14:12,477
12/8/18 14:12,495
12/8/18 14:12,505
12/8/18 14:12,509
12/8/18 14:12,507
12/8/18 14:12,490
12/8/18 14:12,503
12/8/18 14:12,512
12/8/18 14:12,513
12/8/18 14:12,512
12/8/18 14:12,508
12/8/18 14:12,508
12/8/18 14:12,502
12/8/18 14:12,504
12/8/18 14:12,510
12/8/18 14:12,510
12/8/18 14:12,510
12/8/18 14:12,510
12/8/18 14:12,509
12/8/18 14:12,507
12/8/18 14:12,508
12/8/18 14:12,508
12/8/18 14:12,507
12/8/18 14:12,506
12/8/18 14:12,508
12/8/18 14:12,507
12/8/18 14:12,507
12/8/18 14:12,508
12/8/18 14:12,505
12/8/18 14:12,507
12/8/18 14:12,507
12/8/18 14:12,506
12/8/18 14:12,508
12/8/18 14:12,506
12/8/18 14:12,508
12/8/18 14:12,507
12/8/18 14:12,506
12/8/18 14:12,506
12/8/18 14:12,507
12/8/18 14:12,508
12/8/18 14:12,508
12/8/18 14:12,507
12/8/18 14:12,508
12/8/18 14:12,506
12/8/18 14:12,507
12/8/18 14:12,508
12/8/18 14:12,509
12/8/18 14:12,509
12/8/18 14:12,508
12/8/18 14:12,508
12/8/18 14:12,507
12/8/18 14:12,508
12/8/18 14:12,508
12/8/18 14:12,507
12/8/18 14:12,509
12/8/18 14:12,509
12/8/18 14:12,508
12/8/18 14:12,508
12/8/18 14:12,507
12/8/18 14:12,508
12/8/18 14:12,507
12/8/18 14:12,507
12/8/18 14:12,506
12/8/18 14:12,508
12/8/18 14:12,508
12/8/18 14:12,508
12/8/18 14:12,502
12/8/18 14:12,495
12/8/18 14:12,494
12/8/18 14:12,508
12/8/18 14:12,513
12/8/18 14:12,513
12/8/18 14:12,511
12/8/18 14:12,512
12/8/18 14:12,511
12/8/18 14:12,510
12/8/18 14:12,509
12/8/18 14:12,508
12/8/18 14:12,507
12/8/18 14:12,507
12/8/18 14:12,506
12/8/18 14:12,506
12/8/18 14:12,507
12/8/18 14:12,506
12/8/18 14:12,507
12/8/18 14:12,506
12/8/18 14:12,506
12/8/18 14:12,506
12/8/18 14:12,506
12/8/18 14:12,506
12/8/18 14:12,507
12/8/18 14:12,507
12/8/18 14:12,508
12/8/18 14:12,506
12/8/18 14:12,508
12/8/18 14:12,503
12/8/18 14:12,496
12/8/18 14:12,497
12/8/18 14:12,498
12/8/18 14:12,512
12/8/18 14:12,511
12/8/18 14:12,513
12/8/18 14:12,511
12/8/18 14:12,511
12/8/18 14:12,510
12/8/18 14:12,509
12/8/18 14:12,510
12/8/18 14:12,507
12/8/18 14:12,509
12/8/18 14:12,508
12/8/18 14:12,506
12/8/18 14:12,508
12/8/18 14:12,507
12/8/18 14:12,507
12/8/18 14:12,507
12/8/18 14:12,506
12/8/18 14:12,506
12/8/18 14:12,506
12/8/18 14:12,507
12/8/18 14:12,506
12/8/18 14:12,506
12/8/18 14:12,506
12/8/18 14:12,506
12/8/18 14:12,507
12/8/18 14:12,506
12/8/18 14:12,507
12/8/18 14:12,508
12/8/18 14:12,508
12/8/18 14:12,507
12/8/18 14:12,506
12/8/18 14:12,507
12/8/18 14:12,507
12/8/18 14:12,506
12/8/18 14:12,507
12/8/18 14:12,508
12/8/18 14:12,506
12/8/18 14:12,507
12/8/18 14:12,505
12/8/18 14:12,501
12/8/18 14:12,499
12/8/18 14:12,505
12/8/18 14:12,509
12/8/18 14:12,509
12/8/18 14:12,509
12/8/18 14:12,511
12/8/18 14:12,606
12/8/18 14:12,558
12/8/18 14:12,492
12/8/18 14:12,435
12/8/18 14:12,450
12/8/18 14:12,487
12/8/18 14:12,502
12/8/18 14:12,509
12/8/18 14:12,510
12/8/18 14:12,507
12/8/18 14:12,508
12/8/18 14:12,512
12/8/18 14:12,510
12/8/18 14:12,509
12/8/18 14:12,508
12/8/18 14:12,505
12/8/18 14:12,507
12/8/18 14:12,502
12/8/18 14:12,505
12/8/18 14:12,505
12/8/18 14:12,507
12/8/18 14:12,505
12/8/18 14:12,506
12/8/18 14:12,507
12/8/18 14:12,507
12/8/18 14:12,507
12/8/18 14:12,508
12/8/18 14:12,507
12/8/18 14:12,507
12/8/18 14:12,507
12/8/18 14:12,506
12/8/18 14:12,507
12/8/18 14:12,507
12/8/18 14:12,507
12/8/18 14:12,506
12/8/18 14:12,509
12/8/18 14:12,503
12/8/18 14:12,498
12/8/18 14:12,506
12/8/18 14:12,510
12/8/18 14:12,511
12/8/18 14:12,505
12/8/18 14:12,500
12/8/18 14:12,514
12/8/18 14:12,512
12/8/18 14:12,513
12/8/18 14:12,512
12/8/18 14:12,510
12/8/18 14:12,510
12/8/18 14:12,510
12/8/18 14:12,509
12/8/18 14:12,510
12/8/18 14:12,508
12/8/18 14:12,509
12/8/18 14:12,509
12/8/18 14:12,506
12/8/18 14:12,508
12/8/18 14:12,508
12/8/18 14:12,507
12/8/18 14:12,508
12/8/18 14:12,507
12/8/18 14:12,507
12/8/18 14:12,505
12/8/18 14:12,508
12/8/18 14:12,507
12/8/18 14:12,506
12/8/18 14:12,508
12/8/18 14:12,507
12/8/18 14:12,507
12/8/18 14:12,506
12/8/18 14:12,507
12/8/18 14:12,507
12/8/18 14:12,507
12/8/18 14:12,505
12/8/18 14:12,505
12/8/18 14:12,506
12/8/18 14:12,506
12/8/18 14:12,506
12/8/18 14:12,507
12/8/18 14:12,507
12/8/18 14:12,507
12/8/18 14:12,506
12/8/18 14:12,508
12/8/18 14:12,506
12/8/18 14:12,503
12/8/18 14:12,496
12/8/18 14:12,505
12/8/18 14:12,509
12/8/18 14:12,510
12/8/18 14:12,510
12/8/18 14:12,511
12/8/18 14:12,509
12/8/18 14:12,507
12/8/18 14:12,509
12/8/18 14:12,508
12/8/18 14:12,507
12/8/18 14:12,506
12/8/18 14:12,508
12/8/18 14:12,506
12/8/18 14:12,505
12/8/18 14:12,506
12/8/18 14:12,507
12/8/18 14:12,507
12/8/18 14:12,507
12/8/18 14:12,506
12/8/18 14:12,507
12/8/18 14:12,506
12/8/18 14:12,506
12/8/18 14:12,507
12/8/18 14:12,506
12/8/18 14:12,508
12/8/18 14:12,508
12/8/18 14:12,506
12/8/18 14:12,506
12/8/18 14:12,507
12/8/18 14:12,508
12/8/18 14:12,505
12/8/18 14:12,491
12/8/18 14:12,494
12/8/18 14:12,507
12/8/18 14:12,513
12/8/18 14:12,512
12/8/18 14:12,514
12/8/18 14:12,513
12/8/18 14:12,512
12/8/18 14:12,510
12/8/18 14:12,508
12/8/18 14:12,509
12/8/18 14:12,508
12/8/18 14:12,509
12/8/18 14:12,507
12/8/18 14:12,506
12/8/18 14:12,507
12/8/18 14:12,507
12/8/18 14:12,507
12/8/18 14:12,507
12/8/18 14:12,507
12/8/18 14:12,506
12/8/18 14:12,507
12/8/18 14:12,506
12/8/18 14:12,508
12/8/18 14:12,507
12/8/18 14:12,507
12/8/18 14:12,506
12/8/18 14:12,505
12/8/18 14:12,507
12/8/18 14:12,533
12/8/18 14:12,594
12/8/18 14:12,534
12/8/18 14:12,456
12/8/18 14:12,448
12/8/18 14:12,470
12/8/18 14:12,495
12/8/18 14:12,503
12/8/18 14:12,509
12/8/18 14:12,507
12/8/18 14:12,502
12/8/18 14:12,510
12/8/18 14:12,511
12/8/18 14:12,506
12/8/18 14:12,509
12/8/18 14:12,507
12/8/18 14:12,505
12/8/18 14:12,506
12/8/18 14:12,507
12/8/18 14:12,506
12/8/18 14:12,497
12/8/18 14:12,491
12/8/18 14:12,495
12/8/18 14:12,508
12/8/18 14:12,513
12/8/18 14:12,513
12/8/18 14:12,511
12/8/18 14:12,512
12/8/18 14:12,511
12/8/18 14:12,510
12/8/18 14:12,509
12/8/18 14:12,509
12/8/18 14:12,507
12/8/18 14:12,508
12/8/18 14:12,507
12/8/18 14:12,507
12/8/18 14:12,507
12/8/18 14:12,506
12/8/18 14:12,508
12/8/18 14:12,506
12/8/18 14:12,508
12/8/18 14:12,507
12/8/18 14:12,507
12/8/18 14:12,508
12/8/18 14:12,507
12/8/18 14:12,508
12/8/18 14:12,509
12/8/18 14:12,507
12/8/18 14:12,508
12/8/18 14:12,508
12/8/18 14:12,507
12/8/18 14:12,509
12/8/18 14:12,508
12/8/18 14:12,506
12/8/18 14:12,509
12/8/18 14:12,508
12/8/18 14:12,509
12/8/18 14:12,508
12/8/18 14:12,507
12/8/18 14:12,508
12/8/18 14:12,506
12/8/18 14:12,508
12/8/18 14:12,508
12/8/18 14:12,508
12/8/18 14:12,506
12/8/18 14:12,498
12/8/18 14:12,495
12/8/18 14:12,503
12/8/18 14:12,511
12/8/18 14:12,513
12/8/18 14:12,513
12/8/18 14:12,511
12/8/18 14:12,511
12/8/18 14:12,511
12/8/18 14:12,508
12/8/18 14:12,509
12/8/18 14:12,508
12/8/18 14:12,508
12/8/18 14:12,508
12/8/18 14:12,507
12/8/18 14:12,507
12/8/18 14:12,507
12/8/18 14:12,506
12/8/18 14:12,506
12/8/18 14:12,506
12/8/18 14:12,506
12/8/18 14:12,508
12/8/18 14:12,508
12/8/18 14:12,507
12/8/18 14:12,506
12/8/18 14:12,507
12/8/18 14:12,506
12/8/18 14:12,506
12/8/18 14:12,506
12/8/18 14:12,506
12/8/18 14:12,505
12/8/18 14:12,507
12/8/18 14:12,506
12/8/18 14:12,507
12/8/18 14:12,495
12/8/18 14:12,500
12/8/18 14:12,497
12/8/18 14:12,507
12/8/18 14:12,514
12/8/18 14:12,513
12/8/18 14:12,511
12/8/18 14:12,511
12/8/18 14:12,509
12/8/18 14:12,509
12/8/18 14:12,509
12/8/18 14:12,510
12/8/18 14:12,508
12/8/18 14:12,507
12/8/18 14:12,508
12/8/18 14:12,506
12/8/18 14:12,508
12/8/18 14:12,507
12/8/18 14:12,506
12/8/18 14:12,507
12/8/18 14:12,506
12/8/18 14:12,505
12/8/18 14:12,505
12/8/18 14:12,507
12/8/18 14:12,506
12/8/18 14:12,508
12/8/18 14:12,507
12/8/18 14:12,507
12/8/18 14:12,506
12/8/18 14:12,506
12/8/18 14:12,505
12/8/18 14:12,507
12/8/18 14:12,507
12/8/18 14:12,506
12/8/18 14:12,508
12/8/18 14:12,506
12/8/18 14:12,506
12/8/18 14:12,507
12/8/18 14:12,507
12/8/18 14:12,506
12/8/18 14:12,506
12/8/18 14:12,508
12/8/18 14:12,508
12/8/18 14:12,506
12/8/18 14:12,508
12/8/18 14:12,506
12/8/18 14:12,511
12/8/18 14:12,616
12/8/18 14:12,545
12/8/18 14:12,477
12/8/18 14:12,444
12/8/18 14:12,448
12/8/18 14:12,486
12/8/18 14:12,502
12/8/18 14:12,509
12/8/18 14:12,510
12/8/18 14:12,510
12/8/18 14:12,511
12/8/18 14:12,510
12/8/18 14:12,507
12/8/18 14:12,507
12/8/18 14:12,510
12/8/18 14:12,511
12/8/18 14:12,509
12/8/18 14:12,498
12/8/18 14:12,499
12/8/18 14:12,508
12/8/18 14:12,508
12/8/18 14:12,498
12/8/18 14:12,502
12/8/18 14:12,507
12/8/18 14:12,511
12/8/18 14:12,512
12/8/18 14:12,511
12/8/18 14:12,512
12/8/18 14:12,510
12/8/18 14:12,510
12/8/18 14:12,509
12/8/18 14:12,508
12/8/18 14:12,509
12/8/18 14:12,507
12/8/18 14:12,506
12/8/18 14:12,508
12/8/18 14:12,505
12/8/18 14:12,509
12/8/18 14:12,506
12/8/18 14:12,506
12/8/18 14:12,506
12/8/18 14:12,508
12/8/18 14:12,506
12/8/18 14:12,508
12/8/18 14:12,507
12/8/18 14:12,506
12/8/18 14:12,508
12/8/18 14:12,508
12/8/18 14:12,509
12/8/18 14:12,508
12/8/18 14:12,508
12/8/18 14:12,509
12/8/18 14:12,508
12/8/18 14:12,507
12/8/18 14:12,508
12/8/18 14:12,508
12/8/18 14:12,507
12/8/18 14:12,507
12/8/18 14:12,508
12/8/18 14:12,507
12/8/18 14:12,507
12/8/18 14:12,501
12/8/18 14:12,502
12/8/18 14:12,511
12/8/18 14:12,510
12/8/18 14:12,509
12/8/18 14:12,508
12/8/18 14:12,509
12/8/18 14:12,509
12/8/18 14:12,508
12/8/18 14:12,508
12/8/18 14:12,507
12/8/18 14:12,509
12/8/18 14:12,508
12/8/18 14:12,506
12/8/18 14:12,506
12/8/18 14:12,507
12/8/18 14:12,508
12/8/18 14:12,506
12/8/18 14:12,507
12/8/18 14:12,506
12/8/18 14:12,506
12/8/18 14:12,507
12/8/18 14:12,507
12/8/18 14:12,507
12/8/18 14:12,506
12/8/18 14:12,507
12/8/18 14:12,505
12/8/18 14:12,506
12/8/18 14:12,505
12/8/18 14:12,506
12/8/18 14:12,506
12/8/18 14:12,508
12/8/18 14:12,507
12/8/18 14:12,507
12/8/18 14:12,504
12/8/18 14:12,507
12/8/18 14:12,506
12/8/18 14:12,506
12/8/18 14:12,505
12/8/18 14:12,495
12/8/18 14:12,503
12/8/18 14:12,508
12/8/18 14:12,509
12/8/18 14:12,510
12/8/18 14:12,510
12/8/18 14:12,511
12/8/18 14:12,510
12/8/18 14:12,508
12/8/18 14:12,507
12/8/18 14:12,508
12/8/18 14:12,506
12/8/18 14:12,507
12/8/18 14:12,505
12/8/18 14:12,506
12/8/18 14:12,507
12/8/18 14:12,508
12/8/18 14:12,507
12/8/18 14:12,507
12/8/18 14:12,506
12/8/18 14:12,506
12/8/18 14:12,507
12/8/18 14:12,507
12/8/18 14:12,507
12/8/18 14:12,506
12/8/18 14:12,505
12/8/18 14:12,498
12/8/18 14:12,504
12/8/18 14:12,509
12/8/18 14:12,510
12/8/18 14:12,511
12/8/18 14:12,509
12/8/18 14:12,509
12/8/18 14:12,508
12/8/18 14:12,507
12/8/18 14:12,509
12/8/18 14:12,506
12/8/18 14:12,507
12/8/18 14:12,507
12/8/18 14:12,504
12/8/18 14:12,497
12/8/18 14:12,504
12/8/18 14:21,507
12/8/18 14:21,506
12/8/18 14:21,509
12/8/18 14:21,508
12/8/18 14:21,507
12/8/18 14:21,510
12/8/18 14:21,509
12/8/18 14:21,507
12/8/18 14:21,510
12/8/18 14:21,507
12/8/18 14:21,510
12/8/18 14:21,508
12/8/18 14:21,510
12/8/18 14:21,507
12/8/18 14:21,508
12/8/18 14:21,509
12/8/18 14:21,507
12/8/18 14:21,508
12/8/18 14:21,507
12/8/18 14:21,507
12/8/18 14:21,509
12/8/18 14:21,507
12/8/18 14:21,508
12/8/18 14:21,508
12/8/18 14:21,507
12/8/18 14:21,507
12/8/18 14:21,507
12/8/18 14:21,509
12/8/18 14:21,507
12/8/18 14:21,507
12/8/18 14:21,496
12/8/18 14:21,491
12/8/18 14:21,507
12/8/18 14:21,511
12/8/18 14:21,513
12/8/18 14:21,513
12/8/18 14:21,512
12/8/18 14:21,510
12/8/18 14:21,511
12/8/18 14:21,511
12/8/18 14:21,509
12/8/18 14:21,508
12/8/18 14:21,507
12/8/18 14:21,508
12/8/18 14:21,507
12/8/18 14:21,507
12/8/18 14:21,506
12/8/18 14:21,506
12/8/18 14:21,504
12/8/18 14:21,506
12/8/18 14:21,506
12/8/18 14:21,507
12/8/18 14:21,507
12/8/18 14:21,506
12/8/18 14:21,505
12/8/18 14:21,505
12/8/18 14:21,507
12/8/18 14:21,507
12/8/18 14:21,506
12/8/18 14:21,506
12/8/18 14:21,505
12/8/18 14:21,506
12/8/18 14:21,506
12/8/18 14:21,509
12/8/18 14:21,506
12/8/18 14:21,507
12/8/18 14:21,507
12/8/18 14:21,504
12/8/18 14:21,490
12/8/18 14:21,493
12/8/18 14:21,510
12/8/18 14:21,514
12/8/18 14:21,514
12/8/18 14:21,511
12/8/18 14:21,510
12/8/18 14:21,513
12/8/18 14:21,510
12/8/18 14:21,509
12/8/18 14:21,508
12/8/18 14:21,509
12/8/18 14:21,506
12/8/18 14:21,496
12/8/18 14:21,504
12/8/18 14:21,509
12/8/18 14:21,510
12/8/18 14:21,510
12/8/18 14:21,510
12/8/18 14:21,508
12/8/18 14:21,507
12/8/18 14:21,509
12/8/18 14:21,509
12/8/18 14:21,506
12/8/18 14:21,507
12/8/18 14:21,508
12/8/18 14:21,507
12/8/18 14:21,507
12/8/18 14:21,506
12/8/18 14:21,508
12/8/18 14:21,507
12/8/18 14:21,506
12/8/18 14:21,508
12/8/18 14:21,509
12/8/18 14:21,604
12/8/18 14:21,540
12/8/18 14:21,478
12/8/18 14:21,443
12/8/18 14:21,460
12/8/18 14:21,494
12/8/18 14:21,504
12/8/18 14:21,510
12/8/18 14:21,512
12/8/18 14:21,510
12/8/18 14:21,510
12/8/18 14:21,513
12/8/18 14:21,507
12/8/18 14:21,504
12/8/18 14:21,506
12/8/18 14:21,509
12/8/18 14:21,506
12/8/18 14:21,505
12/8/18 14:21,507
12/8/18 14:21,506
12/8/18 14:21,507
12/8/18 14:21,505
12/8/18 14:21,508
12/8/18 14:21,507
12/8/18 14:21,506
12/8/18 14:21,506
12/8/18 14:21,508
12/8/18 14:21,508
12/8/18 14:21,496
12/8/18 14:21,500
12/8/18 14:21,507
12/8/18 14:21,509
12/8/18 14:21,510
12/8/18 14:21,510
12/8/18 14:21,510
12/8/18 14:21,509
12/8/18 14:21,508
12/8/18 14:21,510
12/8/18 14:21,509
12/8/18 14:21,508
12/8/18 14:21,508
12/8/18 14:21,506
12/8/18 14:21,506
12/8/18 14:21,507
12/8/18 14:21,507
12/8/18 14:21,508
12/8/18 14:21,507
12/8/18 14:21,508
12/8/18 14:21,508
12/8/18 14:21,509
12/8/18 14:21,506
12/8/18 14:21,508
12/8/18 14:21,507
12/8/18 14:21,509
12/8/18 14:21,507
12/8/18 14:21,508
12/8/18 14:21,506
12/8/18 14:21,508
12/8/18 14:21,508
12/8/18 14:21,506
12/8/18 14:21,507
12/8/18 14:21,507
12/8/18 14:21,508
12/8/18 14:21,495
12/8/18 14:21,488
12/8/18 14:21,506
12/8/18 14:21,514
12/8/18 14:21,514
12/8/18 14:21,511
12/8/18 14:21,511
12/8/18 14:21,513
12/8/18 14:21,511
12/8/18 14:21,512
12/8/18 14:21,508
12/8/18 14:21,509
12/8/18 14:21,507
12/8/18 14:21,507
12/8/18 14:21,509
12/8/18 14:21,508
12/8/18 14:21,507
12/8/18 14:21,507
12/8/18 14:21,505
12/8/18 14:21,506
12/8/18 14:21,506
12/8/18 14:21,507
12/8/18 14:21,506
12/8/18 14:21,505
12/8/18 14:21,506
12/8/18 14:21,507
12/8/18 14:21,507
12/8/18 14:21,507
12/8/18 14:21,506
12/8/18 14:21,506
12/8/18 14:21,505
12/8/18 14:21,506
12/8/18 14:21,507
12/8/18 14:21,506
12/8/18 14:21,506
12/8/18 14:21,506
12/8/18 14:21,507
12/8/18 14:21,507
12/8/18 14:21,507
12/8/18 14:21,507
12/8/18 14:21,506
12/8/18 14:21,507
12/8/18 14:21,507
12/8/18 14:21,505
12/8/18 14:21,507
12/8/18 14:21,507
12/8/18 14:21,506
12/8/18 14:21,506
12/8/18 14:21,508
12/8/18 14:21,506
12/8/18 14:21,506
12/8/18 14:21,506
12/8/18 14:21,508
12/8/18 14:21,506
12/8/18 14:21,506
12/8/18 14:21,507
12/8/18 14:21,507
12/8/18 14:21,506
12/8/18 14:21,502
12/8/18 14:21,485
12/8/18 14:21,502
12/8/18 14:21,512
12/8/18 14:21,513
12/8/18 14:21,513
12/8/18 14:21,513
12/8/18 14:21,511
12/8/18 14:21,513
12/8/18 14:21,511
12/8/18 14:21,509
12/8/18 14:21,508
12/8/18 14:21,507
12/8/18 14:21,507
12/8/18 14:21,507
12/8/18 14:21,508
12/8/18 14:21,509
12/8/18 14:21,506
12/8/18 14:21,506
12/8/18 14:21,506
12/8/18 14:21,505
12/8/18 14:21,508
12/8/18 14:21,507
12/8/18 14:21,507
12/8/18 14:21,507
12/8/18 14:21,502
12/8/18 14:21,496
12/8/18 14:21,525
12/8/18 14:21,587
12/8/18 14:21,537
12/8/18 14:21,462
12/8/18 14:21,453
12/8/18 14:21,478
12/8/18 14:21,501
12/8/18 14:21,504
12/8/18 14:21,512
12/8/18 14:21,507
12/8/18 14:21,506
12/8/18 14:21,511
12/8/18 14:21,507
12/8/18 14:21,505
12/8/18 14:21,509
12/8/18 14:21,513
12/8/18 14:21,508
12/8/18 14:21,503
12/8/18 14:21,504
12/8/18 14:21,505
12/8/18 14:21,505
12/8/18 14:21,506
12/8/18 14:21,505
12/8/18 14:21,506
12/8/18 14:21,505
12/8/18 14:21,507
12/8/18 14:21,508
12/8/18 14:21,507
12/8/18 14:21,500
12/8/18 14:21,487
12/8/18 14:21,501
12/8/18 14:21,511
12/8/18 14:21,512
12/8/18 14:21,514
12/8/18 14:21,514
12/8/18 14:21,513
12/8/18 14:21,510
12/8/18 14:21,510
12/8/18 14:21,510
12/8/18 14:21,508
12/8/18 14:21,508
12/8/18 14:21,510
12/8/18 14:21,507
12/8/18 14:21,509
12/8/18 14:21,507
12/8/18 14:21,508
12/8/18 14:21,508
12/8/18 14:21,508
12/8/18 14:21,508
12/8/18 14:21,509
12/8/18 14:21,507
12/8/18 14:21,509
12/8/18 14:21,508
12/8/18 14:21,509
12/8/18 14:21,507
12/8/18 14:21,506
12/8/18 14:21,507
12/8/18 14:21,507
12/8/18 14:21,508
12/8/18 14:21,508
12/8/18 14:21,507
12/8/18 14:21,508
12/8/18 14:21,501
12/8/18 14:21,501
12/8/18 14:21,509
12/8/18 14:21,505
12/8/18 14:21,498
12/8/18 14:21,507
12/8/18 14:21,513
12/8/18 14:21,511
12/8/18 14:21,513
12/8/18 14:21,512
12/8/18 14:21,511
12/8/18 14:21,510
12/8/18 14:21,509
12/8/18 14:21,508
12/8/18 14:21,509
12/8/18 14:21,507
12/8/18 14:21,507
12/8/18 14:21,507
12/8/18 14:21,505
12/8/18 14:21,506
12/8/18 14:21,508
12/8/18 14:21,507
12/8/18 14:21,507
12/8/18 14:21,506
12/8/18 14:21,506
12/8/18 14:21,506
12/8/18 14:21,505
12/8/18 14:21,507
12/8/18 14:21,504
12/8/18 14:21,505
12/8/18 14:21,505
12/8/18 14:21,506
12/8/18 14:21,506
12/8/18 14:21,508
12/8/18 14:21,506
12/8/18 14:21,505
12/8/18 14:21,508
12/8/18 14:21,506
12/8/18 14:21,507
12/8/18 14:21,506
12/8/18 14:21,508
12/8/18 14:21,507
12/8/18 14:21,506
12/8/18 14:21,505
12/8/18 14:21,507
12/8/18 14:21,505
12/8/18 14:21,507
12/8/18 14:21,507
12/8/18 14:21,507
12/8/18 14:21,508
12/8/18 14:21,507
12/8/18 14:21,508
12/8/18 14:21,506
12/8/18 14:21,507
12/8/18 14:21,506
12/8/18 14:21,507
12/8/18 14:21,507
12/8/18 14:21,506
12/8/18 14:21,507
12/8/18 14:21,507
12/8/18 14:21,507
12/8/18 14:21,508
12/8/18 14:21,506
12/8/18 14:21,507
12/8/18 14:21,505
12/8/18 14:21,508
12/8/18 14:21,507
12/8/18 14:21,507
12/8/18 14:21,509
12/8/18 14:21,507
12/8/18 14:21,506
12/8/18 14:21,507
12/8/18 14:21,506
12/8/18 14:21,506
12/8/18 14:21,506
12/8/18 14:21,507
12/8/18 14:21,507
12/8/18 14:21,494
12/8/18 14:21,495
12/8/18 14:21,502
12/8/18 14:21,513
12/8/18 14:21,513
12/8/18 14:21,512
12/8/18 14:21,512
12/8/18 14:21,523
12/8/18 14:21,621
12/8/18 14:21,546
12/8/18 14:21,467
12/8/18 14:21,445
12/8/18 14:21,463
12/8/18 14:21,494
12/8/18 14:21,502
12/8/18 14:21,507
12/8/18 14:21,510
12/8/18 14:21,507
12/8/18 14:21,507
12/8/18 14:21,510
12/8/18 14:21,508
12/8/18 14:21,507
12/8/18 14:21,505
12/8/18 14:21,505
12/8/18 14:21,506
12/8/18 14:21,506
12/8/18 14:21,506
12/8/18 14:21,505
12/8/18 14:21,505
12/8/18 14:21,507
12/8/18 14:21,506
12/8/18 14:21,506
12/8/18 14:21,507
12/8/18 14:21,506
12/8/18 14:21,507
12/8/18 14:21,506
12/8/18 14:21,506
12/8/18 14:21,506
12/8/18 14:21,507
12/8/18 14:21,508
12/8/18 14:21,505
12/8/18 14:21,505
12/8/18 14:21,506
12/8/18 14:21,506
12/8/18 14:21,509
12/8/18 14:21,507
12/8/18 14:21,500
12/8/18 14:21,504
12/8/18 14:21,500
12/8/18 14:21,501
12/8/18 14:21,508
12/8/18 14:21,512
12/8/18 14:21,512
12/8/18 14:21,514
12/8/18 14:21,514
12/8/18 14:21,512
12/8/18 14:21,511
12/8/18 14:21,511
12/8/18 14:21,510
12/8/18 14:21,509
12/8/18 14:21,508
12/8/18 14:21,509
12/8/18 14:21,507
12/8/18 14:21,507
12/8/18 14:21,509
12/8/18 14:21,507
12/8/18 14:21,509
12/8/18 14:21,509
12/8/18 14:21,507
12/8/18 14:21,507
12/8/18 14:21,507
12/8/18 14:21,509
12/8/18 14:21,507
12/8/18 14:21,507
12/8/18 14:21,507
12/8/18 14:21,507
12/8/18 14:21,507
12/8/18 14:21,507
12/8/18 14:21,506
12/8/18 14:21,507
12/8/18 14:21,506
12/8/18 14:21,506
12/8/18 14:21,507
12/8/18 14:21,507
12/8/18 14:21,507
12/8/18 14:21,507
12/8/18 14:21,501
12/8/18 14:21,490
12/8/18 14:21,497
12/8/18 14:21,509
12/8/18 14:21,513
12/8/18 14:21,513
12/8/18 14:21,514
12/8/18 14:21,513
12/8/18 14:21,511
12/8/18 14:21,510
12/8/18 14:21,507
12/8/18 14:21,507
12/8/18 14:21,508
12/8/18 14:21,507
12/8/18 14:21,507
12/8/18 14:21,508
12/8/18 14:21,505
12/8/18 14:21,506
12/8/18 14:21,507
12/8/18 14:21,508
12/8/18 14:21,507
12/8/18 14:21,506
12/8/18 14:21,505
12/8/18 14:21,507
12/8/18 14:21,506
12/8/18 14:21,505
12/8/18 14:21,507
12/8/18 14:21,507
12/8/18 14:21,504
12/8/18 14:21,507
12/8/18 14:21,507
12/8/18 14:21,508
12/8/18 14:21,501
12/8/18 14:21,493
12/8/18 14:21,494
12/8/18 14:21,507
12/8/18 14:21,514
12/8/18 14:21,514
12/8/18 14:21,513
12/8/18 14:21,513
12/8/18 14:21,511
12/8/18 14:21,510
12/8/18 14:21,511
12/8/18 14:21,507
12/8/18 14:21,508
12/8/18 14:21,508
12/8/18 14:21,506
12/8/18 14:21,509
12/8/18 14:21,507
12/8/18 14:21,508
12/8/18 14:21,506
12/8/18 14:21,506
12/8/18 14:21,507
12/8/18 14:21,507
12/8/18 14:21,506
12/8/18 14:21,507
12/8/18 14:21,507
12/8/18 14:21,506
12/8/18 14:21,506
12/8/18 14:21,506
12/8/18 14:21,507
12/8/18 14:21,505
12/8/18 14:21,507
12/8/18 14:21,505
12/8/18 14:21,506
12/8/18 14:21,528
12/8/18 14:21,600
12/8/18 14:21,538
12/8/18 14:21,460
12/8/18 14:21,445
12/8/18 14:21,466
12/8/18 14:21,494
12/8/18 14:21,503
12/8/18 14:21,507
12/8/18 14:21,508
12/8/18 14:21,503
12/8/18 14:21,507
12/8/18 14:21,512
12/8/18 14:21,505
12/8/18 14:21,510
12/8/18 14:21,509
12/8/18 14:21,507
12/8/18 14:21,505
12/8/18 14:21,505
12/8/18 14:21,505
12/8/18 14:21,505
12/8/18 14:21,505
12/8/18 14:21,487
12/8/18 14:21,497
12/8/18 14:21,510
12/8/18 14:21,514
12/8/18 14:21,515
12/8/18 14:21,513
12/8/18 14:21,511
12/8/18 14:21,509
12/8/18 14:21,510
12/8/18 14:21,509
12/8/18 14:21,508
12/8/18 14:21,509
12/8/18 14:21,507
12/8/18 14:21,506
12/8/18 14:21,508
12/8/18 14:21,508
12/8/18 14:21,506
12/8/18 14:21,506
12/8/18 14:21,508
12/8/18 14:21,505
12/8/18 14:21,508
12/8/18 14:21,508
12/8/18 14:21,507
12/8/18 14:21,507
12/8/18 14:21,506
12/8/18 14:21,510
12/8/18 14:21,508
12/8/18 14:21,499
12/8/18 14:21,487
12/8/18 14:21,506
12/8/18 14:21,513
12/8/18 14:21,514
12/8/18 14:21,514
12/8/18 14:21,514
12/8/18 14:21,514
12/8/18 14:21,511
12/8/18 14:21,510
12/8/18 14:21,511
12/8/18 14:30,507
12/8/18 14:30,506
12/8/18 14:30,509
12/8/18 14:30,509
12/8/18 14:30,509
12/8/18 14:30,508
12/8/18 14:30,507
12/8/18 14:30,504
12/8/18 14:30,496
12/8/18 14:30,504
12/8/18 14:30,512
12/8/18 14:30,507
12/8/18 14:30,503
12/8/18 14:30,514
12/8/18 14:30,512
12/8/18 14:30,514
12/8/18 14:30,514
12/8/18 14:30,512
12/8/18 14:30,511
12/8/18 14:30,511
12/8/18 14:30,508
12/8/18 14:30,508
12/8/18 14:30,507
12/8/18 14:30,508
12/8/18 14:30,507
12/8/18 14:30,507
12/8/18 14:30,509
12/8/18 14:30,507
12/8/18 14:30,505
12/8/18 14:30,506
12/8/18 14:30,507
12/8/18 14:30,507
12/8/18 14:30,507
12/8/18 14:30,507
12/8/18 14:30,505
12/8/18 14:30,507
12/8/18 14:30,506
12/8/18 14:30,507
12/8/18 14:30,508
12/8/18 14:30,506
12/8/18 14:30,506
12/8/18 14:30,507
12/8/18 14:30,504
12/8/18 14:30,492
12/8/18 14:30,499
12/8/18 14:30,507
12/8/18 14:30,511
12/8/18 14:30,505
12/8/18 14:30,499
12/8/18 14:30,509
12/8/18 14:30,513
12/8/18 14:30,510
12/8/18 14:30,510
12/8/18 14:30,511
12/8/18 14:30,510
12/8/18 14:30,508
12/8/18 14:30,509
12/8/18 14:30,509
12/8/18 14:30,509
12/8/18 14:30,507
12/8/18 14:30,507
12/8/18 14:30,506
12/8/18 14:30,507
12/8/18 14:30,506
12/8/18 14:30,506
12/8/18 14:30,506
12/8/18 14:30,508
12/8/18 14:30,506
12/8/18 14:30,506
12/8/18 14:30,505
12/8/18 14:30,506
12/8/18 14:30,505
12/8/18 14:30,509
12/8/18 14:30,509
12/8/18 14:30,505
12/8/18 14:30,506
12/8/18 14:30,507
12/8/18 14:30,507
12/8/18 14:30,506
12/8/18 14:30,507
12/8/18 14:30,504
12/8/18 14:30,494
12/8/18 14:30,504
12/8/18 14:30,510
12/8/18 14:30,510
12/8/18 14:30,511
12/8/18 14:30,505
12/8/18 14:30,499
12/8/18 14:30,510
12/8/18 14:30,511
12/8/18 14:30,511
12/8/18 14:30,511
12/8/18 14:30,511
12/8/18 14:30,509
12/8/18 14:30,508
12/8/18 14:30,509
12/8/18 14:30,508
12/8/18 14:30,509
12/8/18 14:30,508
12/8/18 14:30,507
12/8/18 14:30,567
12/8/18 14:30,569
12/8/18 14:30,519
12/8/18 14:30,450
12/8/18 14:30,449
12/8/18 14:30,481
12/8/18 14:30,497
12/8/18 14:30,503
12/8/18 14:30,507
12/8/18 14:30,506
12/8/18 14:30,503
12/8/18 14:30,504
12/8/18 14:30,498
12/8/18 14:30,503
12/8/18 14:30,508
12/8/18 14:30,513
12/8/18 14:30,512
12/8/18 14:30,501
12/8/18 14:30,503
12/8/18 14:30,510
12/8/18 14:30,509
12/8/18 14:30,509
12/8/18 14:30,509
12/8/18 14:30,510
12/8/18 14:30,509
12/8/18 14:30,509
12/8/18 14:30,508
12/8/18 14:30,508
12/8/18 14:30,506
12/8/18 14:30,508
12/8/18 14:30,507
12/8/18 14:30,505
12/8/18 14:30,506
12/8/18 14:30,506
12/8/18 14:30,508
12/8/18 14:30,507
12/8/18 14:30,507
12/8/18 14:30,507
12/8/18 14:30,505
12/8/18 14:30,505
12/8/18 14:30,507
12/8/18 14:30,507
12/8/18 14:30,507
12/8/18 14:30,507
12/8/18 14:30,507
12/8/18 14:30,508
12/8/18 14:30,508
12/8/18 14:30,510
12/8/18 14:30,507
12/8/18 14:30,507
12/8/18 14:30,509
12/8/18 14:30,509
12/8/18 14:30,507
12/8/18 14:30,509
12/8/18 14:30,508
12/8/18 14:30,508
12/8/18 14:30,506
12/8/18 14:30,508
12/8/18 14:30,508
12/8/18 14:30,507
12/8/18 14:30,507
12/8/18 14:30,508
12/8/18 14:30,507
12/8/18 14:30,506
12/8/18 14:30,507
12/8/18 14:30,486
12/8/18 14:30,498
12/8/18 14:30,510
12/8/18 14:30,514
12/8/18 14:30,514
12/8/18 14:30,516
12/8/18 14:30,513
12/8/18 14:30,510
12/8/18 14:30,510
12/8/18 14:30,510
12/8/18 14:30,510
12/8/18 14:30,507
12/8/18 14:30,508
12/8/18 14:30,508
12/8/18 14:30,508
12/8/18 14:30,506
12/8/18 14:30,506
12/8/18 14:30,507
12/8/18 14:30,507
12/8/18 14:30,508
12/8/18 14:30,506
12/8/18 14:30,506
12/8/18 14:30,507
12/8/18 14:30,505
12/8/18 14:30,507
12/8/18 14:30,506
12/8/18 14:30,506
12/8/18 14:30,507
12/8/18 14:30,507
12/8/18 14:30,504
12/8/18 14:30,505
12/8/18 14:30,503
12/8/18 14:30,496
12/8/18 14:30,501
12/8/18 14:30,497
12/8/18 14:30,506
12/8/18 14:30,513
12/8/18 14:30,513
12/8/18 14:30,512
12/8/18 14:30,513
12/8/18 14:30,511
12/8/18 14:30,510
12/8/18 14:30,511
12/8/18 14:30,508
12/8/18 14:30,510
12/8/18 14:30,507
12/8/18 14:30,508
12/8/18 14:30,508
12/8/18 14:30,506
12/8/18 14:30,506
12/8/18 14:30,507
12/8/18 14:30,506
12/8/18 14:30,506
12/8/18 14:30,507
12/8/18 14:30,508
12/8/18 14:30,504
12/8/18 14:30,508
12/8/18 14:30,507
12/8/18 14:30,507
12/8/18 14:30,506
12/8/18 14:30,507
12/8/18 14:30,507
12/8/18 14:30,506
12/8/18 14:30,505
12/8/18 14:30,507
12/8/18 14:30,507
12/8/18 14:30,507
12/8/18 14:30,507
12/8/18 14:30,507
12/8/18 14:30,506
12/8/18 14:30,505
12/8/18 14:30,506
12/8/18 14:30,508
12/8/18 14:30,507
12/8/18 14:30,501
12/8/18 14:30,480
12/8/18 14:30,501
12/8/18 14:30,509
12/8/18 14:30,514
12/8/18 14:30,531
12/8/18 14:30,612
12/8/18 14:30,547
12/8/18 14:30,465
12/8/18 14:30,450
12/8/18 14:30,471
12/8/18 14:30,496
12/8/18 14:30,504
12/8/18 14:30,505
12/8/18 14:30,509
12/8/18 14:30,507
12/8/18 14:30,504
12/8/18 14:30,508
12/8/18 14:30,504
12/8/18 14:30,504
12/8/18 14:30,508
12/8/18 14:30,509
12/8/18 14:30,508
12/8/18 14:30,508
12/8/18 14:30,506
12/8/18 14:30,507
12/8/18 14:30,506
12/8/18 14:30,508
12/8/18 14:30,507
12/8/18 14:30,506
12/8/18 14:30,508
12/8/18 14:30,506
12/8/18 14:30,507
12/8/18 14:30,507
12/8/18 14:30,506
12/8/18 14:30,505
12/8/18 14:30,506
12/8/18 14:30,506
12/8/18 14:30,486
12/8/18 14:30,491
12/8/18 14:30,509
12/8/18 14:30,514
12/8/18 14:30,513
12/8/18 14:30,515
12/8/18 14:30,511
12/8/18 14:30,513
12/8/18 14:30,509
12/8/18 14:30,510
12/8/18 14:30,510
12/8/18 14:30,510
12/8/18 14:30,509
12/8/18 14:30,507
12/8/18 14:30,508
12/8/18 14:30,508
12/8/18 14:30,508
12/8/18 14:30,507
12/8/18 14:30,508
12/8/18 14:30,508
12/8/18 14:30,507
12/8/18 14:30,507
12/8/18 14:30,510
12/8/18 14:30,507
12/8/18 14:30,507
12/8/18 14:30,508
12/8/18 14:30,507
12/8/18 14:30,508
12/8/18 14:30,507
12/8/18 14:30,508
12/8/18 14:30,508
12/8/18 14:30,500
12/8/18 14:30,498
12/8/18 14:30,503
12/8/18 14:30,509
12/8/18 14:30,511
12/8/18 14:30,510
12/8/18 14:30,500
12/8/18 14:30,506
12/8/18 14:30,511
12/8/18 14:30,513
12/8/18 14:30,512
12/8/18 14:30,510
12/8/18 14:30,509
12/8/18 14:30,510
12/8/18 14:30,508
12/8/18 14:30,508
12/8/18 14:30,508
12/8/18 14:30,507
12/8/18 14:30,508
12/8/18 14:30,508
12/8/18 14:30,505
12/8/18 14:30,506
12/8/18 14:30,507
12/8/18 14:30,507
12/8/18 14:30,504
12/8/18 14:30,492
12/8/18 14:30,503
12/8/18 14:30,509
12/8/18 14:30,511
12/8/18 14:30,513
12/8/18 14:30,510
12/8/18 14:30,508
12/8/18 14:30,508
12/8/18 14:30,509
12/8/18 14:30,507
12/8/18 14:30,508
12/8/18 14:30,507
12/8/18 14:30,507
12/8/18 14:30,506
12/8/18 14:30,508
12/8/18 14:30,507
12/8/18 14:30,508
12/8/18 14:30,507
12/8/18 14:30,508
12/8/18 14:30,505
12/8/18 14:30,501
12/8/18 14:30,494
12/8/18 14:30,503
12/8/18 14:30,508
12/8/18 14:30,509
12/8/18 14:30,510
12/8/18 14:30,510
12/8/18 14:30,510
12/8/18 14:30,508
12/8/18 14:30,508
12/8/18 14:30,508
12/8/18 14:30,508
12/8/18 14:30,507
12/8/18 14:30,509
12/8/18 14:30,505
12/8/18 14:30,507
12/8/18 14:30,505
12/8/18 14:30,505
12/8/18 14:30,507
12/8/18 14:30,507
12/8/18 14:30,506
12/8/18 14:30,506
12/8/18 14:30,508
12/8/18 14:30,507
12/8/18 14:30,505
12/8/18 14:30,507
12/8/18 14:30,507
12/8/18 14:30,506
12/8/18 14:30,507
12/8/18 14:30,498
12/8/18 14:30,498
12/8/18 14:30,504
12/8/18 14:30,511
12/8/18 14:30,515
12/8/18 14:30,614
12/8/18 14:30,547
12/8/18 14:30,492
12/8/18 14:30,451
12/8/18 14:30,459
12/8/18 14:30,490
12/8/18 14:30,500
12/8/18 14:30,507
12/8/18 14:30,499
12/8/18 14:30,500
12/8/18 14:30,510
12/8/18 14:30,514
12/8/18 14:30,508
12/8/18 14:30,508
12/8/18 14:30,514
12/8/18 14:30,510
12/8/18 14:30,505
12/8/18 14:30,506
12/8/18 14:30,506
12/8/18 14:30,506
12/8/18 14:30,507
12/8/18 14:30,506
12/8/18 14:30,505
12/8/18 14:30,506
12/8/18 14:30,508
12/8/18 14:30,506
12/8/18 14:30,507
12/8/18 14:30,506
12/8/18 14:30,507
12/8/18 14:30,505
12/8/18 14:30,507
12/8/18 14:30,505
12/8/18 14:30,507
12/8/18 14:30,508
12/8/18 14:30,508
12/8/18 14:30,507
12/8/18 14:30,506
12/8/18 14:30,507
12/8/18 14:30,504
12/8/18 14:30,496
12/8/18 14:30,488
12/8/18 14:30,506
12/8/18 14:30,512
12/8/18 14:30,513
12/8/18 14:30,513
12/8/18 14:30,512
12/8/18 14:30,514
12/8/18 14:30,512
12/8/18 14:30,511
12/8/18 14:30,513
12/8/18 14:30,509
12/8/18 14:30,509
12/8/18 14:30,507
12/8/18 14:30,508
12/8/18 14:30,507
12/8/18 14:30,507
12/8/18 14:30,509
12/8/18 14:30,507
12/8/18 14:30,507
12/8/18 14:30,507
12/8/18 14:30,508
12/8/18 14:30,508
12/8/18 14:30,507
12/8/18 14:30,506
12/8/18 14:30,509
12/8/18 14:30,508
12/8/18 14:30,507
12/8/18 14:30,508
12/8/18 14:30,507
12/8/18 14:30,507
12/8/18 14:30,506
12/8/18 14:30,508
12/8/18 14:30,507
12/8/18 14:30,507
12/8/18 14:30,507
12/8/18 14:30,506
12/8/18 14:30,508
12/8/18 14:30,505
12/8/18 14:30,507
12/8/18 14:30,504
12/8/18 14:30,509
12/8/18 14:30,507
12/8/18 14:30,506
12/8/18 14:30,507
12/8/18 14:30,505
12/8/18 14:30,508
12/8/18 14:30,507
12/8/18 14:30,507
12/8/18 14:30,507
12/8/18 14:30,507
12/8/18 14:30,506
12/8/18 14:30,507
12/8/18 14:30,506
12/8/18 14:30,507
12/8/18 14:30,507
12/8/18 14:30,506
12/8/18 14:30,506
12/8/18 14:30,507
12/8/18 14:30,507
12/8/18 14:30,507
12/8/18 14:30,507
12/8/18 14:30,506
12/8/18 14:30,506
12/8/18 14:30,506
12/8/18 14:30,507
12/8/18 14:30,504
12/8/18 14:30,495
12/8/18 14:30,502
12/8/18 14:30,510
12/8/18 14:30,510
12/8/18 14:30,512
12/8/18 14:30,511
12/8/18 14:30,509
12/8/18 14:30,510
12/8/18 14:30,507
12/8/18 14:30,507
12/8/18 14:30,509
12/8/18 14:30,508
12/8/18 14:30,508
12/8/18 14:30,507
12/8/18 14:30,507
12/8/18 14:30,508
12/8/18 14:30,508
12/8/18 14:30,507
12/8/18 14:30,506
12/8/18 14:30,507
12/8/18 14:30,507
12/8/18 14:30,504
12/8/18 14:30,504
12/8/18 14:30,494
12/8/18 14:30,505
12/8/18 14:30,508
12/8/18 14:30,513
12/8/18 14:30,507
12/8/18 14:30,495
12/8/18 14:30,504
12/8/18 14:30,510
12/8/18 14:30,511
12/8/18 14:30,512
12/8/18 14:30,513
12/8/18 14:30,511
12/8/18 14:30,509
12/8/18 14:30,509
12/8/18 14:30,507
12/8/18 14:30,507
12/8/18 14:30,508
12/8/18 14:30,506
12/8/18 14:30,507
12/8/18 14:30,536
12/8/18 14:30,595
12/8/18 14:30,532
12/8/18 14:30,450
12/8/18 14:30,446
12/8/18 14:30,473
12/8/18 14:30,496
12/8/18 14:30,503
12/8/18 14:30,508
12/8/18 14:30,508
12/8/18 14:30,502
12/8/18 14:30,505
12/8/18 14:30,513
12/8/18 14:30,508
12/8/18 14:30,507
12/8/18 14:30,500
12/8/18 14:30,503
12/8/18 14:30,507
12/8/18 14:30,507
12/8/18 14:30,508
12/8/18 14:30,508
12/8/18 14:30,507
12/8/18 14:30,508
12/8/18 14:30,509
12/8/18 14:30,508
12/8/18 14:30,507
12/8/18 14:30,493
12/8/18 14:30,500
12/8/18 14:30,509
12/8/18 14:30,511
12/8/18 14:30,514
12/8/18 14:30,510
12/8/18 14:30,510
12/8/18 14:30,508
12/8/18 14:30,509
12/8/18 14:30,507
12/8/18 14:30,507
12/8/18 14:30,508
12/8/18 14:30,508
12/8/18 14:30,507
12/8/18 14:30,506
12/8/18 14:30,507
12/8/18 14:30,506
12/8/18 14:30,508
12/8/18 14:30,507
12/8/18 14:30,508
12/8/18 14:30,507
12/8/18 14:30,507
12/8/18 14:30,508
12/8/18 14:30,508
12/8/18 14:30,506
12/8/18 14:30,507
12/8/18 14:30,508
12/8/18 14:30,508
12/8/18 14:30,509
12/8/18 14:30,508
12/8/18 14:30,508
12/8/18 14:30,509
12/8/18 14:30,508
12/8/18 14:30,508
12/8/18 14:30,507
12/8/18 14:30,508
12/8/18 14:30,509
12/8/18 14:30,506
12/8/18 14:30,507
12/8/18 14:39,510
12/8/18 14:39,510
12/8/18 14:39,506
12/8/18 14:39,507
12/8/18 14:39,508
12/8/18 14:39,505
12/8/18 14:39,509
12/8/18 14:39,506
12/8/18 14:39,507
12/8/18 14:39,506
12/8/18 14:39,504
12/8/18 14:39,508
12/8/18 14:39,505
12/8/18 14:39,506
12/8/18 14:39,508
12/8/18 14:39,506
12/8/18 14:39,506
12/8/18 14:39,505
12/8/18 14:39,509
12/8/18 14:39,507
12/8/18 14:39,507
12/8/18 14:39,508
12/8/18 14:39,507
12/8/18 14:39,506
12/8/18 14:39,505
12/8/18 14:39,505
12/8/18 14:39,504
12/8/18 14:39,494
12/8/18 14:39,506
12/8/18 14:39,509
12/8/18 14:39,507
12/8/18 14:39,502
12/8/18 14:39,497
12/8/18 14:39,509
12/8/18 14:39,514
12/8/18 14:39,515
12/8/18 14:39,545
12/8/18 14:39,585
12/8/18 14:39,536
12/8/18 14:39,463
12/8/18 14:39,450
12/8/18 14:39,474
12/8/18 14:39,497
12/8/18 14:39,506
12/8/18 14:39,510
12/8/18 14:39,507
12/8/18 14:39,508
12/8/18 14:39,507
12/8/18 14:39,508
12/8/18 14:39,505
12/8/18 14:39,510
12/8/18 14:39,514
12/8/18 14:39,506
12/8/18 14:39,505
12/8/18 14:39,504
12/8/18 14:39,503
12/8/18 14:39,505
12/8/18 14:39,503
12/8/18 14:39,506
12/8/18 14:39,505
12/8/18 14:39,505
12/8/18 14:39,505
12/8/18 14:39,505
12/8/18 14:39,509
12/8/18 14:39,508
12/8/18 14:39,507
12/8/18 14:39,509
12/8/18 14:39,505
12/8/18 14:39,508
12/8/18 14:39,506
12/8/18 14:39,507
12/8/18 14:39,508
12/8/18 14:39,505
12/8/18 14:39,508
12/8/18 14:39,507
12/8/18 14:39,507
12/8/18 14:39,507
12/8/18 14:39,505
12/8/18 14:39,510
12/8/18 14:39,506
12/8/18 14:39,492
12/8/18 14:39,501
12/8/18 14:39,506
12/8/18 14:39,514
12/8/18 14:39,513
12/8/18 14:39,510
12/8/18 14:39,507
12/8/18 14:39,508
12/8/18 14:39,511
12/8/18 14:39,510
12/8/18 14:39,512
12/8/18 14:39,513
12/8/18 14:39,509
12/8/18 14:39,510
12/8/18 14:39,509
12/8/18 14:39,509
12/8/18 14:39,508
12/8/18 14:39,508
12/8/18 14:39,510
12/8/18 14:39,507
12/8/18 14:39,509
12/8/18 14:39,508
12/8/18 14:39,507
12/8/18 14:39,509
12/8/18 14:39,505
12/8/18 14:39,506
12/8/18 14:39,507
12/8/18 14:39,506
12/8/18 14:39,509
12/8/18 14:39,506
12/8/18 14:39,507
12/8/18 14:39,506
12/8/18 14:39,506
12/8/18 14:39,509
12/8/18 14:39,505
12/8/18 14:39,506
12/8/18 14:39,508
12/8/18 14:39,506
12/8/18 14:39,506
12/8/18 14:39,505
12/8/18 14:39,507
12/8/18 14:39,507
12/8/18 14:39,506
12/8/18 14:39,507
12/8/18 14:39,493
12/8/18 14:39,496
12/8/18 14:39,501
12/8/18 14:39,501
12/8/18 14:39,514
12/8/18 14:39,512
12/8/18 14:39,513
12/8/18 14:39,511
12/8/18 14:39,511
12/8/18 14:39,511
12/8/18 14:39,509
12/8/18 14:39,510
12/8/18 14:39,508
12/8/18 14:39,509
12/8/18 14:39,509
12/8/18 14:39,505
12/8/18 14:39,509
12/8/18 14:39,508
12/8/18 14:39,506
12/8/18 14:39,506
12/8/18 14:39,505
12/8/18 14:39,508
12/8/18 14:39,506
12/8/18 14:39,505
12/8/18 14:39,508
12/8/18 14:39,506
12/8/18 14:39,508
12/8/18 14:39,505
12/8/18 14:39,506
12/8/18 14:39,509
12/8/18 14:39,505
12/8/18 14:39,508
12/8/18 14:39,505
12/8/18 14:39,506
12/8/18 14:39,509
12/8/18 14:39,505
12/8/18 14:39,508
12/8/18 14:39,506
12/8/18 14:39,507
12/8/18 14:39,507
12/8/18 14:39,505
12/8/18 14:39,508
12/8/18 14:39,506
12/8/18 14:39,508
12/8/18 14:39,507
12/8/18 14:39,504
12/8/18 14:39,508
12/8/18 14:39,505
12/8/18 14:39,516
12/8/18 14:39,600
12/8/18 14:39,535
12/8/18 14:39,470
12/8/18 14:39,450
12/8/18 14:39,459
12/8/18 14:39,473
12/8/18 14:39,498
12/8/18 14:39,513
12/8/18 14:39,515
12/8/18 14:39,517
12/8/18 14:39,513
12/8/18 14:39,516
12/8/18 14:39,517
12/8/18 14:39,511
12/8/18 14:39,509
12/8/18 14:39,507
12/8/18 14:39,506
12/8/18 14:39,508
12/8/18 14:39,506
12/8/18 14:39,507
12/8/18 14:39,506
12/8/18 14:39,507
12/8/18 14:39,507
12/8/18 14:39,505
12/8/18 14:39,506
12/8/18 14:39,507
12/8/18 14:39,506
12/8/18 14:39,507
12/8/18 14:39,505
12/8/18 14:39,506
12/8/18 14:39,506
12/8/18 14:39,505
12/8/18 14:39,508
12/8/18 14:39,505
12/8/18 14:39,507
12/8/18 14:39,506
12/8/18 14:39,505
12/8/18 14:39,508
12/8/18 14:39,506
12/8/18 14:39,507
12/8/18 14:39,507
12/8/18 14:39,506
12/8/18 14:39,508
12/8/18 14:39,507
12/8/18 14:39,509
12/8/18 14:39,506
12/8/18 14:39,507
12/8/18 14:39,505
12/8/18 14:39,496
12/8/18 14:39,509
12/8/18 14:39,495
12/8/18 14:39,502
12/8/18 14:39,513
12/8/18 14:39,514
12/8/18 14:39,517
12/8/18 14:39,514
12/8/18 14:39,514
12/8/18 14:39,515
12/8/18 14:39,509
12/8/18 14:39,513
12/8/18 14:39,508
12/8/18 14:39,508
12/8/18 14:39,508
12/8/18 14:39,507
12/8/18 14:39,509
12/8/18 14:39,506
12/8/18 14:39,508
12/8/18 14:39,509
12/8/18 14:39,505
12/8/18 14:39,508
12/8/18 14:39,507
12/8/18 14:39,507
12/8/18 14:39,507
12/8/18 14:39,505
12/8/18 14:39,507
12/8/18 14:39,505
12/8/18 14:39,507
12/8/18 14:39,506
12/8/18 14:39,506
12/8/18 14:39,506
12/8/18 14:39,505
12/8/18 14:39,506
12/8/18 14:39,508
12/8/18 14:39,506
12/8/18 14:39,507
12/8/18 14:39,506
12/8/18 14:39,507
12/8/18 14:39,507
12/8/18 14:39,504
12/8/18 14:39,507
12/8/18 14:39,505
12/8/18 14:39,506
12/8/18 14:39,507
12/8/18 14:39,507
12/8/18 14:39,501
12/8/18 14:39,490
12/8/18 14:39,498
12/8/18 14:39,511
12/8/18 14:39,511
12/8/18 14:39,515
12/8/18 14:39,511
12/8/18 14:39,512
12/8/18 14:39,511
12/8/18 14:39,511
12/8/18 14:39,512
12/8/18 14:39,508
12/8/18 14:39,508
12/8/18 14:39,509
12/8/18 14:39,507
12/8/18 14:39,509
12/8/18 14:39,504
12/8/18 14:39,507
12/8/18 14:39,507
12/8/18 14:39,506
12/8/18 14:39,506
12/8/18 14:39,504
12/8/18 14:39,508
12/8/18 14:39,507
12/8/18 14:39,506
12/8/18 14:39,507
12/8/18 14:39,504
12/8/18 14:39,507
12/8/18 14:39,499
12/8/18 14:39,492
12/8/18 14:39,505
12/8/18 14:39,508
12/8/18 14:39,514
12/8/18 14:39,510
12/8/18 14:39,512
12/8/18 14:39,512
12/8/18 14:39,515
12/8/18 14:39,612
12/8/18 14:39,540
12/8/18 14:39,476
12/8/18 14:39,449
12/8/18 14:39,456
12/8/18 14:39,491
12/8/18 14:39,505
12/8/18 14:39,505
12/8/18 14:39,507
12/8/18 14:39,509
12/8/18 14:39,517
12/8/18 14:39,508
12/8/18 14:39,506
12/8/18 14:39,509
12/8/18 14:39,508
12/8/18 14:39,506
12/8/18 14:39,502
12/8/18 14:39,505
12/8/18 14:39,506
12/8/18 14:39,504
12/8/18 14:39,507
12/8/18 14:39,505
12/8/18 14:39,506
12/8/18 14:39,507
12/8/18 14:39,505
12/8/18 14:39,505
12/8/18 14:39,497
12/8/18 14:39,508
12/8/18 14:39,508
12/8/18 14:39,507
12/8/18 14:39,511
12/8/18 14:39,491
12/8/18 14:39,500
12/8/18 14:39,511
12/8/18 14:39,510
12/8/18 14:39,516
12/8/18 14:39,513
12/8/18 14:39,512
12/8/18 14:39,512
12/8/18 14:39,508
12/8/18 14:39,511
12/8/18 14:39,507
12/8/18 14:39,508
12/8/18 14:39,507
12/8/18 14:39,506
12/8/18 14:39,508
12/8/18 14:39,508
12/8/18 14:39,506
12/8/18 14:39,509
12/8/18 14:39,507
12/8/18 14:39,508
12/8/18 14:39,507
12/8/18 14:39,507
12/8/18 14:39,509
12/8/18 14:39,507
12/8/18 14:39,510
12/8/18 14:39,506
12/8/18 14:39,508
12/8/18 14:39,507
12/8/18 14:39,507
12/8/18 14:39,509
12/8/18 14:39,505
12/8/18 14:39,508
12/8/18 14:39,508
12/8/18 14:39,506
12/8/18 14:39,509
12/8/18 14:39,506
12/8/18 14:39,508
12/8/18 14:39,507
12/8/18 14:39,508
12/8/18 14:39,509
12/8/18 14:39,507
12/8/18 14:39,505
12/8/18 14:39,507
12/8/18 14:39,506
12/8/18 14:39,508
12/8/18 14:39,505
12/8/18 14:39,508
12/8/18 14:39,505
12/8/18 14:39,506
12/8/18 14:39,490
12/8/18 14:39,498
12/8/18 14:39,506
12/8/18 14:39,504
12/8/18 14:39,511
12/8/18 14:39,514
12/8/18 14:39,511
12/8/18 14:39,514
12/8/18 14:39,510
12/8/18 14:39,510
12/8/18 14:39,511
12/8/18 14:39,508
12/8/18 14:39,508
12/8/18 14:39,508
12/8/18 14:39,507
12/8/18 14:39,507
12/8/18 14:39,506
12/8/18 14:39,508
12/8/18 14:39,506
12/8/18 14:39,505
12/8/18 14:39,508
12/8/18 14:39,506
12/8/18 14:39,507
12/8/18 14:39,505
12/8/18 14:39,504
12/8/18 14:39,506
12/8/18 14:39,505
12/8/18 14:39,508
12/8/18 14:39,506
12/8/18 14:39,506
12/8/18 14:39,508
12/8/18 14:39,504
12/8/18 14:39,509
12/8/18 14:39,505
12/8/18 14:39,506
12/8/18 14:39,506
12/8/18 14:39,505
12/8/18 14:39,507
12/8/18 14:39,490
12/8/18 14:39,498
12/8/18 14:39,506
12/8/18 14:39,502
12/8/18 14:39,512
12/8/18 14:39,512
12/8/18 14:39,515
12/8/18 14:39,512
12/8/18 14:39,510
12/8/18 14:39,514
12/8/18 14:39,509
12/8/18 14:39,511
12/8/18 14:39,509
12/8/18 14:39,507
12/8/18 14:39,508
12/8/18 14:39,509
12/8/18 14:39,538
12/8/18 14:39,585
12/8/18 14:39,531
12/8/18 14:39,457
12/8/18 14:39,449
12/8/18 14:39,470
12/8/18 14:39,497
12/8/18 14:39,502
12/8/18 14:39,506
12/8/18 14:39,507
12/8/18 14:39,514
12/8/18 14:39,506
12/8/18 14:39,509
12/8/18 14:39,510
12/8/18 14:39,504
12/8/18 14:39,506
12/8/18 14:39,503
12/8/18 14:39,503
12/8/18 14:39,505
12/8/18 14:39,505
12/8/18 14:39,508
12/8/18 14:39,507
12/8/18 14:39,507
12/8/18 14:39,508
12/8/18 14:39,505
12/8/18 14:39,508
12/8/18 14:39,507
12/8/18 14:39,507
12/8/18 14:39,510
12/8/18 14:39,504
12/8/18 14:39,507
12/8/18 14:39,506
12/8/18 14:39,488
12/8/18 14:39,503
12/8/18 14:39,503
12/8/18 14:39,509
12/8/18 14:39,513
12/8/18 14:39,512
12/8/18 14:39,514
12/8/18 14:39,509
12/8/18 14:39,513
12/8/18 14:39,509
12/8/18 14:39,509
12/8/18 14:39,510
12/8/18 14:39,505
12/8/18 14:39,510
12/8/18 14:39,509
12/8/18 14:39,507
12/8/18 14:39,508
12/8/18 14:39,505
12/8/18 14:39,509
12/8/18 14:39,507
12/8/18 14:39,508
12/8/18 14:39,509
12/8/18 14:39,507
12/8/18 14:39,509
12/8/18 14:39,508
12/8/18 14:39,507
12/8/18 14:39,510
12/8/18 14:39,505
12/8/18 14:39,509
12/8/18 14:39,506
12/8/18 14:39,507
12/8/18 14:39,508
12/8/18 14:39,508
12/8/18 14:39,508
12/8/18 14:39,505
12/8/18 14:39,506
12/8/18 14:39,509
12/8/18 14:39,506
12/8/18 14:39,508
12/8/18 14:39,506
12/8/18 14:39,506
12/8/18 14:39,508
12/8/18 14:39,505
12/8/18 14:39,508
12/8/18 14:39,506
12/8/18 14:39,507
12/8/18 14:39,507
12/8/18 14:39,506
12/8/18 14:39,508
12/8/18 14:39,507
12/8/18 14:39,505
12/8/18 14:39,507
12/8/18 14:39,505
12/8/18 14:39,508
12/8/18 14:39,504
12/8/18 14:39,507
12/8/18 14:39,508
12/8/18 14:39,506
12/8/18 14:39,508
12/8/18 14:39,504
12/8/18 14:39,507
12/8/18 14:39,508
12/8/18 14:39,493
12/8/18 14:39,498
12/8/18 14:39,505
12/8/18 14:39,511
12/8/18 14:39,513
12/8/18 14:39,511
12/8/18 14:39,513
12/8/18 14:39,509
12/8/18 14:39,510
12/8/18 14:39,509
12/8/18 14:39,509
12/8/18 14:39,505
12/8/18 14:39,497
12/8/18 14:39,505
12/8/18 14:39,507
12/8/18 14:39,508
12/8/18 14:39,510
12/8/18 14:39,508
12/8/18 14:39,510
12/8/18 14:39,509
12/8/18 14:39,508
12/8/18 14:39,507
12/8/18 14:39,506
12/8/18 14:39,509
12/8/18 14:39,506
12/8/18 14:39,507
12/8/18 14:39,508
12/8/18 14:39,503
12/8/18 14:39,509
12/8/18 14:39,507
12/8/18 14:39,491
12/8/18 14:39,497
12/8/18 14:39,505
12/8/18 14:39,512
12/8/18 14:39,511
12/8/18 14:39,512
12/8/18 14:39,512
12/8/18 14:39,507
12/8/18 14:39,509
12/8/18 14:39,508
12/8/18 14:39,508
12/8/18 14:39,510
12/8/18 14:39,579
12/8/18 14:39,551
12/8/18 14:39,509
12/8/18 14:39,455
12/8/18 14:39,456
12/8/18 14:39,481
12/8/18 14:39,502
12/8/18 14:39,503
12/8/18 14:39,509
12/8/18 14:39,508
12/8/18 14:39,505
12/8/18 14:39,509
12/8/18 14:39,507
12/8/18 14:39,513
12/8/18 14:39,506
12/8/18 14:39,504
12/8/18 14:39,507
12/8/18 14:39,504
12/8/18 14:39,503
12/8/18 14:39,502
12/8/18 14:39,502
12/8/18 14:39,506
12/8/18 14:39,506
12/8/18 14:39,501
12/8/18 14:39,484
12/8/18 14:39,500
12/8/18 14:48,507
12/8/18 14:48,507
12/8/18 14:48,506
12/8/18 14:48,508
12/8/18 14:48,505
12/8/18 14:48,507
12/8/18 14:48,506
12/8/18 14:48,491
12/8/18 14:48,497
12/8/18 14:48,502
12/8/18 14:48,513
12/8/18 14:48,515
12/8/18 14:48,513
12/8/18 14:48,515
12/8/18 14:48,511
12/8/18 14:48,514
12/8/18 14:48,509
12/8/18 14:48,509
12/8/18 14:48,509
12/8/18 14:48,508
12/8/18 14:48,508
12/8/18 14:48,506
12/8/18 14:48,505
12/8/18 14:48,507
12/8/18 14:48,506
12/8/18 14:48,507
12/8/18 14:48,507
12/8/18 14:48,507
12/8/18 14:48,507
12/8/18 14:48,506
12/8/18 14:48,508
12/8/18 14:48,505
12/8/18 14:48,506
12/8/18 14:48,506
12/8/18 14:48,506
12/8/18 14:48,508
12/8/18 14:48,508
12/8/18 14:48,599
12/8/18 14:48,545
12/8/18 14:48,495
12/8/18 14:48,450
12/8/18 14:48,453
12/8/18 14:48,488
12/8/18 14:48,502
12/8/18 14:48,506
12/8/18 14:48,506
12/8/18 14:48,506
12/8/18 14:48,510
12/8/18 14:48,507
12/8/18 14:48,490
12/8/18 14:48,498
12/8/18 14:48,504
12/8/18 14:48,516
12/8/18 14:48,515
12/8/18 14:48,516
12/8/18 14:48,514
12/8/18 14:48,508
12/8/18 14:48,507
12/8/18 14:48,508
12/8/18 14:48,507
12/8/18 14:48,510
12/8/18 14:48,507
12/8/18 14:48,509
12/8/18 14:48,507
12/8/18 14:48,507
12/8/18 14:48,509
