X,Bin ECG
12/11/18 14:09,521
12/11/18 14:09,519
12/11/18 14:09,501
12/11/18 14:09,498
12/11/18 14:09,501
12/11/18 14:09,505
12/11/18 14:09,508
12/11/18 14:09,501
12/11/18 14:09,502
12/11/18 14:09,501
12/11/18 14:09,503
12/11/18 14:09,504
12/11/18 14:09,507
12/11/18 14:09,508
12/11/18 14:09,508
12/11/18 14:09,506
12/11/18 14:09,505
12/11/18 14:09,507
12/11/18 14:09,506
12/11/18 14:09,506
12/11/18 14:09,505
12/11/18 14:09,507
12/11/18 14:09,508
12/11/18 14:09,508
12/11/18 14:09,508
12/11/18 14:09,507
12/11/18 14:09,507
12/11/18 14:09,507
12/11/18 14:09,507
12/11/18 14:09,509
12/11/18 14:09,505
12/11/18 14:09,508
12/11/18 14:09,508
12/11/18 14:09,506
12/11/18 14:09,507
12/11/18 14:09,507
12/11/18 14:09,508
12/11/18 14:09,509
12/11/18 14:09,508
12/11/18 14:09,507
12/11/18 14:09,506
12/11/18 14:09,509
12/11/18 14:09,507
12/11/18 14:09,507
12/11/18 14:09,507
12/11/18 14:09,508
12/11/18 14:09,507
12/11/18 14:09,507
12/11/18 14:09,506
12/11/18 14:09,507
12/11/18 14:09,506
12/11/18 14:09,508
12/11/18 14:09,530
12/11/18 14:09,513
12/11/18 14:09,496
12/11/18 14:09,497
12/11/18 14:09,503
12/11/18 14:09,509
12/11/18 14:09,502
12/11/18 14:09,499
12/11/18 14:09,501
12/11/18 14:09,502
12/11/18 14:09,505
12/11/18 14:09,506
12/11/18 14:09,506
12/11/18 14:09,507
12/11/18 14:09,505
12/11/18 14:09,506
12/11/18 14:09,508
12/11/18 14:09,506
12/11/18 14:09,506
12/11/18 14:09,506
12/11/18 14:09,507
12/11/18 14:09,506
12/11/18 14:09,507
12/11/18 14:09,508
12/11/18 14:09,508
12/11/18 14:09,508
12/11/18 14:09,507
12/11/18 14:09,508
12/11/18 14:09,508
12/11/18 14:09,507
12/11/18 14:09,507
12/11/18 14:09,508
12/11/18 14:09,507
12/11/18 14:09,509
12/11/18 14:09,507
12/11/18 14:09,507
12/11/18 14:09,508
12/11/18 14:09,509
12/11/18 14:09,507
12/11/18 14:09,506
12/11/18 14:09,508
12/11/18 14:09,506
12/11/18 14:09,507
12/11/18 14:09,506
12/11/18 14:09,508
12/11/18 14:09,507
12/11/18 14:09,506
12/11/18 14:09,506
12/11/18 14:09,507
12/11/18 14:09,507
12/11/18 14:09,507
12/11/18 14:09,552
12/11/18 14:09,520
12/11/18 14:09,499
12/11/18 14:09,495
12/11/18 14:09,501
12/11/18 14:09,503
12/11/18 14:09,504
12/11/18 14:09,501
12/11/18 14:09,503
12/11/18 14:09,503
12/11/18 14:09,503
12/11/18 14:09,508
12/11/18 14:09,507
12/11/18 14:09,509
12/11/18 14:09,505
12/11/18 14:09,508
12/11/18 14:09,506
12/11/18 14:09,506
12/11/18 14:09,507
12/11/18 14:09,507
12/11/18 14:09,507
12/11/18 14:09,507
12/11/18 14:09,505
12/11/18 14:09,508
12/11/18 14:09,508
12/11/18 14:09,508
12/11/18 14:09,505
12/11/18 14:09,506
12/11/18 14:09,507
12/11/18 14:09,508
12/11/18 14:09,507
12/11/18 14:09,508
12/11/18 14:09,508
12/11/18 14:09,507
12/11/18 14:09,508
12/11/18 14:09,509
12/11/18 14:09,506
12/11/18 14:09,507
12/11/18 14:09,507
12/11/18 14:09,507
12/11/18 14:09,507
12/11/18 14:09,508
12/11/18 14:09,507
12/11/18 14:09,507
12/11/18 14:09,506
12/11/18 14:09,508
12/11/18 14:09,507
12/11/18 14:09,508
12/11/18 14:09,507
12/11/18 14:09,506
12/11/18 14:09,508
12/11/18 14:09,524
12/11/18 14:09,519
12/11/18 14:09,503
12/11/18 14:09,498
12/11/18 14:09,498
12/11/18 14:09,505
12/11/18 14:09,513
12/11/18 14:09,504
12/11/18 14:09,500
12/11/18 14:09,500
12/11/18 14:09,502
12/11/18 14:09,502
12/11/18 14:09,504
12/11/18 14:09,505
12/11/18 14:09,506
12/11/18 14:09,505
12/11/18 14:09,507
12/11/18 14:09,506
12/11/18 14:09,507
12/11/18 14:09,506
12/11/18 14:09,507
12/11/18 14:09,507
12/11/18 14:09,507
12/11/18 14:09,506
12/11/18 14:09,505
12/11/18 14:09,508
12/11/18 14:09,506
12/11/18 14:09,508
12/11/18 14:09,506
12/11/18 14:09,507
12/11/18 14:09,507
12/11/18 14:09,509
12/11/18 14:09,508
12/11/18 14:09,508
12/11/18 14:09,508
12/11/18 14:09,509
12/11/18 14:09,508
12/11/18 14:09,507
12/11/18 14:09,508
12/11/18 14:09,508
12/11/18 14:09,508
12/11/18 14:09,507
12/11/18 14:09,508
12/11/18 14:09,507
12/11/18 14:09,509
12/11/18 14:09,508
12/11/18 14:09,506
12/11/18 14:09,506
12/11/18 14:09,506
12/11/18 14:09,507
12/11/18 14:09,507
12/11/18 14:09,507
12/11/18 14:09,552
12/11/18 14:09,515
12/11/18 14:09,498
12/11/18 14:09,497
12/11/18 14:09,502
12/11/18 14:09,505
12/11/18 14:09,508
12/11/18 14:09,501
12/11/18 14:09,501
12/11/18 14:09,501
12/11/18 14:09,503
12/11/18 14:09,505
12/11/18 14:09,506
12/11/18 14:09,506
12/11/18 14:09,507
12/11/18 14:09,508
12/11/18 14:09,505
12/11/18 14:09,507
12/11/18 14:09,506
12/11/18 14:09,507
12/11/18 14:09,507
12/11/18 14:09,506
12/11/18 14:09,507
12/11/18 14:09,507
12/11/18 14:09,509
12/11/18 14:09,506
12/11/18 14:09,507
12/11/18 14:09,506
12/11/18 14:09,507
12/11/18 14:09,509
12/11/18 14:09,508
12/11/18 14:09,508
12/11/18 14:09,507
12/11/18 14:09,508
12/11/18 14:09,507
12/11/18 14:09,509
12/11/18 14:09,507
12/11/18 14:09,507
12/11/18 14:09,508
12/11/18 14:09,508
12/11/18 14:09,508
12/11/18 14:09,507
12/11/18 14:09,507
12/11/18 14:09,507
12/11/18 14:09,507
12/11/18 14:09,508
12/11/18 14:09,508
12/11/18 14:09,505
12/11/18 14:09,506
12/11/18 14:09,505
12/11/18 14:09,508
12/11/18 14:09,510
12/11/18 14:09,527
12/11/18 14:09,508
12/11/18 14:09,497
12/11/18 14:09,498
12/11/18 14:09,500
12/11/18 14:09,508
12/11/18 14:09,507
12/11/18 14:09,503
12/11/18 14:09,499
12/11/18 14:09,501
12/11/18 14:09,502
12/11/18 14:09,505
12/11/18 14:09,506
12/11/18 14:09,507
12/11/18 14:09,506
12/11/18 14:09,506
12/11/18 14:09,505
12/11/18 14:09,506
12/11/18 14:09,506
12/11/18 14:09,505
12/11/18 14:09,507
12/11/18 14:09,508
12/11/18 14:09,508
12/11/18 14:09,506
12/11/18 14:09,507
12/11/18 14:09,509
12/11/18 14:09,507
12/11/18 14:09,507
12/11/18 14:09,507
12/11/18 14:09,508
12/11/18 14:09,507
12/11/18 14:09,507
12/11/18 14:09,507
12/11/18 14:09,507
12/11/18 14:09,508
12/11/18 14:09,509
12/11/18 14:09,508
12/11/18 14:09,508
12/11/18 14:09,506
12/11/18 14:09,508
12/11/18 14:09,510
12/11/18 14:09,506
12/11/18 14:09,506
12/11/18 14:09,508
12/11/18 14:09,507
12/11/18 14:09,506
12/11/18 14:09,508
12/11/18 14:09,507
12/11/18 14:09,508
12/11/18 14:09,507
12/11/18 14:09,508
12/11/18 14:09,532
12/11/18 14:09,512
12/11/18 14:09,498
12/11/18 14:09,499
12/11/18 14:09,503
12/11/18 14:09,506
12/11/18 14:09,504
12/11/18 14:09,500
12/11/18 14:09,498
12/11/18 14:09,499
12/11/18 14:09,504
12/11/18 14:09,506
12/11/18 14:09,507
12/11/18 14:09,507
12/11/18 14:09,507
12/11/18 14:09,506
12/11/18 14:09,507
12/11/18 14:09,506
12/11/18 14:09,506
12/11/18 14:09,505
12/11/18 14:09,506
12/11/18 14:09,508
12/11/18 14:09,506
12/11/18 14:09,507
12/11/18 14:09,506
12/11/18 14:09,508
12/11/18 14:09,508
12/11/18 14:09,508
12/11/18 14:09,507
12/11/18 14:09,506
12/11/18 14:09,508
12/11/18 14:09,508
12/11/18 14:09,506
12/11/18 14:09,508
12/11/18 14:09,508
12/11/18 14:09,508
12/11/18 14:09,509
12/11/18 14:09,510
12/11/18 14:09,508
12/11/18 14:09,507
12/11/18 14:09,507
12/11/18 14:09,507
12/11/18 14:09,507
12/11/18 14:09,508
12/11/18 14:09,506
12/11/18 14:09,507
12/11/18 14:09,505
12/11/18 14:09,506
12/11/18 14:09,506
12/11/18 14:09,506
12/11/18 14:09,508
12/11/18 14:09,514
12/11/18 14:09,523
12/11/18 14:09,507
12/11/18 14:09,498
12/11/18 14:09,498
12/11/18 14:09,502
12/11/18 14:09,508
12/11/18 14:09,490
12/11/18 14:09,497
12/11/18 14:09,503
12/11/18 14:09,505
12/11/18 14:09,510
12/11/18 14:09,510
12/11/18 14:09,510
12/11/18 14:09,509
12/11/18 14:09,509
12/11/18 14:09,508
12/11/18 14:09,508
12/11/18 14:09,507
12/11/18 14:09,506
12/11/18 14:09,506
12/11/18 14:09,505
12/11/18 14:09,506
12/11/18 14:09,504
12/11/18 14:09,506
12/11/18 14:09,506
12/11/18 14:09,507
12/11/18 14:09,506
12/11/18 14:09,507
12/11/18 14:09,506
12/11/18 14:09,508
12/11/18 14:09,506
12/11/18 14:09,507
12/11/18 14:09,508
12/11/18 14:09,508
12/11/18 14:09,507
12/11/18 14:09,507
12/11/18 14:09,509
12/11/18 14:09,508
12/11/18 14:09,507
12/11/18 14:09,508
12/11/18 14:09,508
12/11/18 14:09,507
12/11/18 14:09,507
12/11/18 14:09,507
12/11/18 14:09,508
12/11/18 14:09,506
12/11/18 14:09,507
12/11/18 14:09,507
12/11/18 14:09,506
12/11/18 14:09,506
12/11/18 14:09,507
12/11/18 14:09,552
12/11/18 14:09,515
12/11/18 14:09,499
12/11/18 14:09,498
12/11/18 14:09,500
12/11/18 14:09,505
12/11/18 14:09,509
12/11/18 14:09,503
12/11/18 14:09,500
12/11/18 14:09,501
12/11/18 14:09,503
12/11/18 14:09,506
12/11/18 14:09,506
12/11/18 14:09,506
12/11/18 14:09,505
12/11/18 14:09,506
12/11/18 14:09,507
12/11/18 14:09,507
12/11/18 14:09,505
12/11/18 14:09,504
12/11/18 14:09,506
12/11/18 14:09,506
12/11/18 14:09,506
12/11/18 14:09,508
12/11/18 14:09,508
12/11/18 14:09,505
12/11/18 14:09,508
12/11/18 14:09,507
12/11/18 14:09,507
12/11/18 14:09,507
12/11/18 14:09,508
12/11/18 14:09,508
12/11/18 14:09,507
12/11/18 14:09,509
12/11/18 14:09,508
12/11/18 14:09,508
12/11/18 14:09,509
12/11/18 14:09,508
12/11/18 14:09,506
12/11/18 14:09,509
12/11/18 14:09,506
12/11/18 14:09,507
12/11/18 14:09,508
12/11/18 14:09,507
12/11/18 14:09,507
12/11/18 14:09,508
12/11/18 14:09,505
12/11/18 14:09,506
12/11/18 14:09,508
12/11/18 14:09,509
12/11/18 14:09,507
12/11/18 14:09,510
12/11/18 14:09,527
12/11/18 14:09,508
12/11/18 14:09,497
12/11/18 14:09,498
12/11/18 14:09,501
12/11/18 14:09,511
12/11/18 14:09,507
12/11/18 14:09,501
12/11/18 14:09,499
12/11/18 14:09,502
12/11/18 14:09,504
12/11/18 14:09,505
12/11/18 14:09,506
12/11/18 14:09,507
12/11/18 14:09,506
12/11/18 14:09,505
12/11/18 14:09,505
12/11/18 14:09,505
12/11/18 14:09,507
12/11/18 14:09,506
12/11/18 14:09,506
12/11/18 14:09,506
12/11/18 14:09,507
12/11/18 14:09,507
12/11/18 14:09,508
12/11/18 14:09,507
12/11/18 14:09,507
12/11/18 14:09,507
12/11/18 14:09,508
12/11/18 14:09,509
12/11/18 14:09,506
12/11/18 14:09,509
12/11/18 14:09,508
12/11/18 14:09,507
12/11/18 14:09,507
12/11/18 14:09,509
12/11/18 14:09,507
12/11/18 14:09,508
12/11/18 14:09,507
12/11/18 14:09,507
12/11/18 14:09,507
12/11/18 14:09,507
12/11/18 14:09,507
12/11/18 14:09,508
12/11/18 14:09,506
12/11/18 14:09,507
12/11/18 14:09,506
12/11/18 14:09,509
12/11/18 14:09,506
12/11/18 14:09,508
12/11/18 14:09,506
12/11/18 14:09,529
12/11/18 14:09,521
12/11/18 14:09,504
12/11/18 14:09,498
12/11/18 14:09,501
12/11/18 14:09,501
12/11/18 14:09,508
12/11/18 14:09,502
12/11/18 14:09,501
12/11/18 14:09,501
12/11/18 14:09,503
12/11/18 14:09,505
12/11/18 14:09,504
12/11/18 14:09,507
12/11/18 14:09,507
12/11/18 14:09,506
12/11/18 14:09,507
12/11/18 14:09,506
12/11/18 14:09,505
12/11/18 14:09,506
12/11/18 14:09,506
12/11/18 14:09,505
12/11/18 14:09,507
12/11/18 14:09,508
12/11/18 14:09,507
12/11/18 14:09,507
12/11/18 14:09,506
12/11/18 14:09,507
12/11/18 14:09,508
12/11/18 14:09,508
12/11/18 14:09,506
12/11/18 14:09,507
12/11/18 14:09,507
12/11/18 14:09,508
12/11/18 14:09,510
12/11/18 14:09,508
12/11/18 14:09,509
12/11/18 14:09,508
12/11/18 14:09,508
12/11/18 14:09,508
12/11/18 14:09,507
12/11/18 14:09,506
12/11/18 14:09,507
12/11/18 14:09,507
12/11/18 14:09,506
12/11/18 14:09,508
12/11/18 14:09,506
12/11/18 14:09,507
12/11/18 14:09,506
12/11/18 14:09,506
12/11/18 14:09,506
12/11/18 14:09,507
12/11/18 14:09,552
12/11/18 14:09,518
12/11/18 14:09,501
12/11/18 14:09,496
12/11/18 14:09,503
12/11/18 14:09,502
12/11/18 14:09,508
12/11/18 14:09,503
12/11/18 14:09,500
12/11/18 14:09,501
12/11/18 14:09,503
12/11/18 14:09,504
12/11/18 14:09,505
12/11/18 14:09,505
12/11/18 14:09,506
12/11/18 14:09,508
12/11/18 14:09,507
12/11/18 14:09,508
12/11/18 14:09,507
12/11/18 14:09,506
12/11/18 14:09,506
12/11/18 14:09,507
12/11/18 14:09,506
12/11/18 14:09,507
12/11/18 14:09,507
12/11/18 14:09,506
12/11/18 14:09,507
12/11/18 14:09,507
12/11/18 14:09,507
12/11/18 14:09,507
12/11/18 14:09,507
12/11/18 14:09,507
12/11/18 14:09,509
12/11/18 14:18,501
12/11/18 14:18,501
12/11/18 14:18,503
12/11/18 14:18,501
12/11/18 14:18,503
12/11/18 14:18,505
12/11/18 14:18,507
12/11/18 14:18,508
12/11/18 14:18,506
12/11/18 14:18,507
12/11/18 14:18,506
12/11/18 14:18,508
12/11/18 14:18,505
12/11/18 14:18,505
12/11/18 14:18,506
12/11/18 14:18,507
12/11/18 14:18,507
12/11/18 14:18,506
12/11/18 14:18,506
12/11/18 14:18,507
12/11/18 14:18,507
12/11/18 14:18,509
12/11/18 14:18,508
12/11/18 14:18,509
12/11/18 14:18,508
12/11/18 14:18,506
12/11/18 14:18,507
12/11/18 14:18,508
12/11/18 14:18,508
12/11/18 14:18,508
12/11/18 14:18,509
12/11/18 14:18,508
12/11/18 14:18,507
12/11/18 14:18,509
12/11/18 14:18,507
12/11/18 14:18,507
12/11/18 14:18,508
12/11/18 14:18,509
12/11/18 14:18,507
12/11/18 14:18,507
12/11/18 14:18,508
12/11/18 14:18,506
12/11/18 14:18,506
12/11/18 14:18,507
12/11/18 14:18,507
12/11/18 14:18,507
12/11/18 14:18,506
12/11/18 14:18,535
12/11/18 14:18,521
12/11/18 14:18,499
12/11/18 14:18,494
12/11/18 14:18,498
12/11/18 14:18,503
12/11/18 14:18,515
12/11/18 14:18,509
12/11/18 14:18,501
12/11/18 14:18,500
12/11/18 14:18,500
12/11/18 14:18,501
12/11/18 14:18,505
12/11/18 14:18,506
12/11/18 14:18,506
12/11/18 14:18,506
12/11/18 14:18,506
12/11/18 14:18,505
12/11/18 14:18,505
12/11/18 14:18,507
12/11/18 14:18,506
12/11/18 14:18,507
12/11/18 14:18,507
12/11/18 14:18,507
12/11/18 14:18,507
12/11/18 14:18,507
12/11/18 14:18,507
12/11/18 14:18,508
12/11/18 14:18,507
12/11/18 14:18,508
12/11/18 14:18,509
12/11/18 14:18,507
12/11/18 14:18,509
12/11/18 14:18,509
12/11/18 14:18,507
12/11/18 14:18,509
12/11/18 14:18,507
12/11/18 14:18,507
12/11/18 14:18,507
12/11/18 14:18,508
12/11/18 14:18,508
12/11/18 14:18,508
12/11/18 14:18,508
12/11/18 14:18,507
12/11/18 14:18,507
12/11/18 14:18,507
12/11/18 14:18,508
12/11/18 14:18,508
12/11/18 14:18,504
12/11/18 14:18,506
12/11/18 14:18,508
12/11/18 14:18,506
12/11/18 14:18,544
12/11/18 14:18,521
12/11/18 14:18,500
12/11/18 14:18,493
12/11/18 14:18,498
12/11/18 14:18,501
12/11/18 14:18,509
12/11/18 14:18,506
12/11/18 14:18,502
12/11/18 14:18,501
12/11/18 14:18,502
12/11/18 14:18,505
12/11/18 14:18,507
12/11/18 14:18,507
12/11/18 14:18,506
12/11/18 14:18,507
12/11/18 14:18,506
12/11/18 14:18,505
12/11/18 14:18,507
12/11/18 14:18,507
12/11/18 14:18,506
12/11/18 14:18,507
12/11/18 14:18,506
12/11/18 14:18,508
12/11/18 14:18,506
12/11/18 14:18,508
12/11/18 14:18,507
12/11/18 14:18,507
12/11/18 14:18,507
12/11/18 14:18,507
12/11/18 14:18,507
12/11/18 14:18,508
12/11/18 14:18,507
12/11/18 14:18,508
12/11/18 14:18,509
12/11/18 14:18,508
12/11/18 14:18,508
12/11/18 14:18,507
12/11/18 14:18,508
12/11/18 14:18,508
12/11/18 14:18,507
12/11/18 14:18,507
12/11/18 14:18,509
12/11/18 14:18,508
12/11/18 14:18,508
12/11/18 14:18,507
12/11/18 14:18,508
12/11/18 14:18,507
12/11/18 14:18,507
12/11/18 14:18,506
12/11/18 14:18,506
12/11/18 14:18,506
12/11/18 14:18,545
12/11/18 14:18,520
12/11/18 14:18,499
12/11/18 14:18,495
12/11/18 14:18,500
12/11/18 14:18,505
12/11/18 14:18,508
12/11/18 14:18,508
12/11/18 14:18,503
12/11/18 14:18,501
12/11/18 14:18,499
12/11/18 14:18,502
12/11/18 14:18,503
12/11/18 14:18,506
12/11/18 14:18,507
12/11/18 14:18,506
12/11/18 14:18,506
12/11/18 14:18,507
12/11/18 14:18,507
12/11/18 14:18,506
12/11/18 14:18,506
12/11/18 14:18,508
12/11/18 14:18,508
12/11/18 14:18,508
12/11/18 14:18,506
12/11/18 14:18,507
12/11/18 14:18,508
12/11/18 14:18,508
12/11/18 14:18,506
12/11/18 14:18,507
12/11/18 14:18,507
12/11/18 14:18,506
12/11/18 14:18,507
12/11/18 14:18,508
12/11/18 14:18,509
12/11/18 14:18,508
12/11/18 14:18,508
12/11/18 14:18,507
12/11/18 14:18,508
12/11/18 14:18,507
12/11/18 14:18,508
12/11/18 14:18,507
12/11/18 14:18,508
12/11/18 14:18,507
12/11/18 14:18,505
12/11/18 14:18,507
12/11/18 14:18,506
12/11/18 14:18,506
12/11/18 14:18,506
12/11/18 14:18,507
12/11/18 14:18,508
12/11/18 14:18,506
12/11/18 14:18,556
12/11/18 14:18,518
12/11/18 14:18,498
12/11/18 14:18,494
12/11/18 14:18,502
12/11/18 14:18,504
12/11/18 14:18,507
12/11/18 14:18,507
12/11/18 14:18,501
12/11/18 14:18,500
12/11/18 14:18,501
12/11/18 14:18,503
12/11/18 14:18,505
12/11/18 14:18,506
12/11/18 14:18,505
12/11/18 14:18,506
12/11/18 14:18,507
12/11/18 14:18,506
12/11/18 14:18,507
12/11/18 14:18,506
12/11/18 14:18,507
12/11/18 14:18,508
12/11/18 14:18,507
12/11/18 14:18,506
12/11/18 14:18,508
12/11/18 14:18,506
12/11/18 14:18,507
12/11/18 14:18,506
12/11/18 14:18,507
12/11/18 14:18,506
12/11/18 14:18,507
12/11/18 14:18,506
12/11/18 14:18,509
12/11/18 14:18,509
12/11/18 14:18,509
12/11/18 14:18,510
12/11/18 14:18,507
12/11/18 14:18,508
12/11/18 14:18,509
12/11/18 14:18,506
12/11/18 14:18,506
12/11/18 14:18,508
12/11/18 14:18,507
12/11/18 14:18,507
12/11/18 14:18,508
12/11/18 14:18,507
12/11/18 14:18,507
12/11/18 14:18,507
12/11/18 14:18,506
12/11/18 14:18,506
12/11/18 14:18,507
12/11/18 14:18,506
12/11/18 14:18,547
12/11/18 14:18,520
12/11/18 14:18,499
12/11/18 14:18,494
12/11/18 14:18,501
12/11/18 14:18,512
12/11/18 14:18,499
12/11/18 14:18,499
12/11/18 14:18,502
12/11/18 14:18,504
12/11/18 14:18,505
12/11/18 14:18,506
12/11/18 14:18,507
12/11/18 14:18,505
12/11/18 14:18,507
12/11/18 14:18,507
12/11/18 14:18,507
12/11/18 14:18,506
12/11/18 14:18,505
12/11/18 14:18,504
12/11/18 14:18,507
12/11/18 14:18,507
12/11/18 14:18,506
12/11/18 14:18,507
12/11/18 14:18,507
12/11/18 14:18,506
12/11/18 14:18,508
12/11/18 14:18,507
12/11/18 14:18,507
12/11/18 14:18,508
12/11/18 14:18,508
12/11/18 14:18,507
12/11/18 14:18,508
12/11/18 14:18,508
12/11/18 14:18,509
12/11/18 14:18,508
12/11/18 14:18,508
12/11/18 14:18,509
12/11/18 14:18,509
12/11/18 14:18,508
12/11/18 14:18,506
12/11/18 14:18,506
12/11/18 14:18,506
12/11/18 14:18,507
12/11/18 14:18,508
12/11/18 14:18,506
12/11/18 14:18,507
12/11/18 14:18,507
12/11/18 14:18,506
12/11/18 14:18,508
12/11/18 14:18,506
12/11/18 14:18,551
12/11/18 14:18,518
12/11/18 14:18,497
12/11/18 14:18,496
12/11/18 14:18,503
12/11/18 14:18,503
12/11/18 14:18,508
12/11/18 14:18,504
12/11/18 14:18,501
12/11/18 14:18,502
12/11/18 14:18,504
12/11/18 14:18,506
12/11/18 14:18,507
12/11/18 14:18,507
12/11/18 14:18,506
12/11/18 14:18,505
12/11/18 14:18,505
12/11/18 14:18,506
12/11/18 14:18,504
12/11/18 14:18,506
12/11/18 14:18,506
12/11/18 14:18,506
12/11/18 14:18,507
12/11/18 14:18,506
12/11/18 14:18,507
12/11/18 14:18,507
12/11/18 14:18,506
12/11/18 14:18,508
12/11/18 14:18,508
12/11/18 14:18,508
12/11/18 14:18,507
12/11/18 14:18,508
12/11/18 14:18,508
12/11/18 14:18,507
12/11/18 14:18,508
12/11/18 14:18,508
12/11/18 14:18,507
12/11/18 14:18,508
12/11/18 14:18,507
12/11/18 14:18,508
12/11/18 14:18,507
12/11/18 14:18,507
12/11/18 14:18,507
12/11/18 14:18,506
12/11/18 14:18,508
12/11/18 14:18,505
12/11/18 14:18,506
12/11/18 14:18,506
12/11/18 14:18,507
12/11/18 14:18,507
12/11/18 14:18,507
12/11/18 14:18,507
12/11/18 14:18,553
12/11/18 14:18,515
12/11/18 14:18,496
12/11/18 14:18,496
12/11/18 14:18,504
12/11/18 14:18,504
12/11/18 14:18,496
12/11/18 14:18,499
12/11/18 14:18,501
12/11/18 14:18,505
12/11/18 14:18,507
12/11/18 14:18,507
12/11/18 14:18,509
12/11/18 14:18,509
12/11/18 14:18,507
12/11/18 14:18,508
12/11/18 14:18,505
12/11/18 14:18,506
12/11/18 14:18,507
12/11/18 14:18,506
12/11/18 14:18,507
12/11/18 14:18,506
12/11/18 14:18,507
12/11/18 14:18,507
12/11/18 14:18,507
12/11/18 14:18,507
12/11/18 14:18,506
12/11/18 14:18,507
12/11/18 14:18,506
12/11/18 14:18,507
12/11/18 14:18,509
12/11/18 14:18,508
12/11/18 14:18,507
12/11/18 14:18,508
12/11/18 14:18,508
12/11/18 14:18,506
12/11/18 14:18,510
12/11/18 14:18,509
12/11/18 14:18,507
12/11/18 14:18,506
12/11/18 14:18,508
12/11/18 14:18,507
12/11/18 14:18,507
12/11/18 14:18,508
12/11/18 14:18,508
12/11/18 14:18,505
12/11/18 14:18,507
12/11/18 14:18,506
12/11/18 14:18,507
12/11/18 14:18,507
12/11/18 14:18,506
12/11/18 14:18,555
12/11/18 14:18,518
12/11/18 14:18,498
12/11/18 14:18,495
12/11/18 14:18,501
12/11/18 14:18,507
12/11/18 14:18,494
12/11/18 14:18,497
12/11/18 14:18,501
12/11/18 14:18,506
12/11/18 14:18,508
12/11/18 14:18,508
12/11/18 14:18,509
12/11/18 14:18,510
12/11/18 14:18,508
12/11/18 14:18,507
12/11/18 14:18,507
12/11/18 14:18,506
12/11/18 14:18,507
12/11/18 14:18,505
12/11/18 14:18,505
12/11/18 14:18,507
12/11/18 14:18,508
12/11/18 14:18,507
12/11/18 14:18,506
12/11/18 14:18,507
12/11/18 14:18,506
12/11/18 14:18,508
12/11/18 14:18,507
12/11/18 14:18,507
12/11/18 14:18,509
12/11/18 14:18,508
12/11/18 14:18,507
12/11/18 14:18,508
12/11/18 14:18,507
12/11/18 14:18,506
12/11/18 14:18,509
12/11/18 14:18,509
12/11/18 14:18,508
12/11/18 14:18,508
12/11/18 14:18,506
12/11/18 14:18,507
12/11/18 14:18,506
12/11/18 14:18,506
12/11/18 14:18,506
12/11/18 14:18,507
12/11/18 14:18,507
12/11/18 14:18,508
12/11/18 14:18,506
12/11/18 14:18,508
12/11/18 14:18,508
12/11/18 14:18,511
12/11/18 14:18,523
12/11/18 14:18,504
12/11/18 14:18,498
12/11/18 14:18,498
12/11/18 14:18,505
12/11/18 14:18,513
12/11/18 14:18,506
12/11/18 14:18,500
12/11/18 14:18,501
12/11/18 14:18,501
12/11/18 14:18,504
12/11/18 14:18,505
12/11/18 14:18,505
12/11/18 14:18,506
12/11/18 14:18,507
12/11/18 14:18,506
12/11/18 14:18,506
12/11/18 14:18,506
12/11/18 14:18,504
12/11/18 14:18,506
12/11/18 14:18,506
12/11/18 14:18,505
12/11/18 14:18,507
12/11/18 14:18,506
12/11/18 14:18,507
12/11/18 14:18,507
12/11/18 14:18,507
12/11/18 14:18,508
12/11/18 14:18,507
12/11/18 14:18,506
12/11/18 14:18,507
12/11/18 14:18,509
12/11/18 14:18,509
12/11/18 14:18,509
12/11/18 14:18,509
12/11/18 14:18,508
12/11/18 14:18,507
12/11/18 14:18,508
12/11/18 14:18,508
12/11/18 14:18,507
12/11/18 14:18,507
12/11/18 14:18,507
12/11/18 14:18,505
12/11/18 14:18,507
12/11/18 14:18,507
12/11/18 14:18,506
12/11/18 14:18,508
12/11/18 14:18,507
12/11/18 14:18,507
12/11/18 14:18,508
12/11/18 14:18,507
12/11/18 14:18,517
12/11/18 14:18,526
12/11/18 14:18,503
12/11/18 14:18,495
12/11/18 14:18,499
12/11/18 14:18,511
12/11/18 14:18,511
12/11/18 14:18,503
12/11/18 14:18,499
12/11/18 14:18,500
12/11/18 14:18,501
12/11/18 14:18,502
12/11/18 14:18,504
12/11/18 14:18,505
12/11/18 14:18,506
12/11/18 14:18,504
12/11/18 14:18,506
12/11/18 14:18,505
12/11/18 14:18,506
12/11/18 14:18,506
12/11/18 14:18,506
12/11/18 14:18,507
12/11/18 14:18,506
12/11/18 14:18,508
12/11/18 14:18,508
12/11/18 14:18,506
12/11/18 14:18,507
12/11/18 14:18,508
12/11/18 14:18,507
12/11/18 14:18,508
12/11/18 14:18,507
12/11/18 14:18,507
12/11/18 14:18,508
12/11/18 14:18,508
12/11/18 14:18,508
12/11/18 14:18,506
12/11/18 14:18,509
12/11/18 14:18,509
12/11/18 14:18,508
12/11/18 14:18,508
12/11/18 14:18,504
12/11/18 14:18,507
12/11/18 14:18,508
12/11/18 14:18,508
12/11/18 14:18,507
12/11/18 14:18,507
12/11/18 14:18,507
12/11/18 14:18,506
12/11/18 14:18,507
12/11/18 14:18,506
12/11/18 14:18,506
12/11/18 14:18,511
12/11/18 14:18,525
12/11/18 14:18,507
12/11/18 14:18,496
12/11/18 14:18,497
12/11/18 14:18,509
12/11/18 14:18,499
12/11/18 14:18,501
12/11/18 14:18,502
12/11/18 14:18,501
12/11/18 14:18,504
12/11/18 14:18,507
12/11/18 14:18,507
12/11/18 14:18,509
12/11/18 14:18,508
12/11/18 14:18,507
12/11/18 14:18,508
12/11/18 14:18,507
12/11/18 14:18,507
12/11/18 14:18,507
12/11/18 14:18,507
12/11/18 14:18,507
12/11/18 14:18,504
12/11/18 14:18,506
12/11/18 14:18,506
12/11/18 14:18,507
12/11/18 14:18,506
12/11/18 14:18,510
12/11/18 14:18,507
12/11/18 14:18,508
12/11/18 14:18,506
12/11/18 14:18,506
12/11/18 14:18,508
12/11/18 14:18,507
12/11/18 14:18,507
12/11/18 14:18,508
12/11/18 14:18,509
12/11/18 14:27,507
12/11/18 14:27,507
12/11/18 14:27,548
12/11/18 14:27,514
12/11/18 14:27,497
12/11/18 14:27,498
12/11/18 14:27,505
12/11/18 14:27,500
12/11/18 14:27,495
12/11/18 14:27,501
12/11/18 14:27,503
12/11/18 14:27,505
12/11/18 14:27,507
12/11/18 14:27,508
12/11/18 14:27,509
12/11/18 14:27,509
12/11/18 14:27,508
12/11/18 14:27,507
12/11/18 14:27,508
12/11/18 14:27,507
12/11/18 14:27,506
12/11/18 14:27,507
12/11/18 14:27,507
12/11/18 14:27,507
12/11/18 14:27,506
12/11/18 14:27,508
12/11/18 14:27,507
12/11/18 14:27,507
12/11/18 14:27,506
12/11/18 14:27,507
12/11/18 14:27,508
12/11/18 14:27,506
12/11/18 14:27,507
12/11/18 14:27,508
12/11/18 14:27,507
12/11/18 14:27,508
12/11/18 14:27,507
12/11/18 14:27,508
12/11/18 14:27,507
12/11/18 14:27,507
12/11/18 14:27,508
12/11/18 14:27,507
12/11/18 14:27,506
12/11/18 14:27,506
12/11/18 14:27,506
12/11/18 14:27,508
12/11/18 14:27,506
12/11/18 14:27,506
12/11/18 14:27,507
12/11/18 14:27,508
12/11/18 14:27,506
12/11/18 14:27,505
12/11/18 14:27,506
12/11/18 14:27,506
12/11/18 14:27,551
12/11/18 14:27,514
12/11/18 14:27,497
12/11/18 14:27,497
12/11/18 14:27,506
12/11/18 14:27,503
12/11/18 14:27,503
12/11/18 14:27,501
12/11/18 14:27,499
12/11/18 14:27,501
12/11/18 14:27,504
12/11/18 14:27,505
12/11/18 14:27,507
12/11/18 14:27,507
12/11/18 14:27,506
12/11/18 14:27,505
12/11/18 14:27,507
12/11/18 14:27,507
12/11/18 14:27,508
12/11/18 14:27,506
12/11/18 14:27,507
12/11/18 14:27,506
12/11/18 14:27,506
12/11/18 14:27,507
12/11/18 14:27,509
12/11/18 14:27,508
12/11/18 14:27,507
12/11/18 14:27,507
12/11/18 14:27,507
12/11/18 14:27,508
12/11/18 14:27,509
12/11/18 14:27,508
12/11/18 14:27,507
12/11/18 14:27,509
12/11/18 14:27,507
12/11/18 14:27,508
12/11/18 14:27,507
12/11/18 14:27,508
12/11/18 14:27,506
12/11/18 14:27,507
12/11/18 14:27,507
12/11/18 14:27,507
12/11/18 14:27,509
12/11/18 14:27,507
12/11/18 14:27,507
12/11/18 14:27,507
12/11/18 14:27,507
12/11/18 14:27,507
12/11/18 14:27,505
12/11/18 14:27,505
12/11/18 14:27,508
12/11/18 14:27,506
12/11/18 14:27,557
12/11/18 14:27,520
12/11/18 14:27,498
12/11/18 14:27,494
12/11/18 14:27,502
12/11/18 14:27,514
12/11/18 14:27,510
12/11/18 14:27,502
12/11/18 14:27,498
12/11/18 14:27,498
12/11/18 14:27,500
12/11/18 14:27,501
12/11/18 14:27,503
12/11/18 14:27,504
12/11/18 14:27,505
12/11/18 14:27,506
12/11/18 14:27,506
12/11/18 14:27,506
12/11/18 14:27,506
12/11/18 14:27,506
12/11/18 14:27,508
12/11/18 14:27,508
12/11/18 14:27,506
12/11/18 14:27,506
12/11/18 14:27,508
12/11/18 14:27,507
12/11/18 14:27,509
12/11/18 14:27,509
12/11/18 14:27,509
12/11/18 14:27,507
12/11/18 14:27,507
12/11/18 14:27,508
12/11/18 14:27,509
12/11/18 14:27,508
12/11/18 14:27,506
12/11/18 14:27,509
12/11/18 14:27,507
12/11/18 14:27,508
12/11/18 14:27,508
12/11/18 14:27,508
12/11/18 14:27,507
12/11/18 14:27,507
12/11/18 14:27,506
12/11/18 14:27,507
12/11/18 14:27,507
12/11/18 14:27,506
12/11/18 14:27,506
12/11/18 14:27,508
12/11/18 14:27,506
12/11/18 14:27,508
12/11/18 14:27,505
12/11/18 14:27,518
12/11/18 14:27,525
12/11/18 14:27,506
12/11/18 14:27,497
12/11/18 14:27,499
12/11/18 14:27,509
12/11/18 14:27,502
12/11/18 14:27,504
12/11/18 14:27,500
12/11/18 14:27,501
12/11/18 14:27,501
12/11/18 14:27,505
12/11/18 14:27,505
12/11/18 14:27,507
12/11/18 14:27,507
12/11/18 14:27,505
12/11/18 14:27,506
12/11/18 14:27,507
12/11/18 14:27,507
12/11/18 14:27,507
12/11/18 14:27,507
12/11/18 14:27,507
12/11/18 14:27,507
12/11/18 14:27,506
12/11/18 14:27,507
12/11/18 14:27,508
12/11/18 14:27,508
12/11/18 14:27,508
12/11/18 14:27,507
12/11/18 14:27,508
12/11/18 14:27,508
12/11/18 14:27,507
12/11/18 14:27,507
12/11/18 14:27,507
12/11/18 14:27,507
12/11/18 14:27,507
12/11/18 14:27,508
12/11/18 14:27,507
12/11/18 14:27,507
12/11/18 14:27,507
12/11/18 14:27,507
12/11/18 14:27,506
12/11/18 14:27,508
12/11/18 14:27,508
12/11/18 14:27,507
12/11/18 14:27,506
12/11/18 14:27,507
12/11/18 14:27,506
12/11/18 14:27,508
12/11/18 14:27,505
12/11/18 14:27,506
12/11/18 14:27,506
12/11/18 14:27,515
12/11/18 14:27,525
12/11/18 14:27,507
12/11/18 14:27,494
12/11/18 14:27,497
12/11/18 14:27,499
12/11/18 14:27,501
12/11/18 14:27,500
12/11/18 14:27,503
12/11/18 14:27,505
12/11/18 14:27,505
12/11/18 14:27,507
12/11/18 14:27,508
12/11/18 14:27,508
12/11/18 14:27,508
12/11/18 14:27,506
12/11/18 14:27,507
12/11/18 14:27,505
12/11/18 14:27,507
12/11/18 14:27,506
12/11/18 14:27,504
12/11/18 14:27,506
12/11/18 14:27,507
12/11/18 14:27,508
12/11/18 14:27,508
12/11/18 14:27,508
12/11/18 14:27,507
12/11/18 14:27,507
12/11/18 14:27,508
12/11/18 14:27,508
12/11/18 14:27,507
12/11/18 14:27,506
12/11/18 14:27,507
12/11/18 14:27,508
12/11/18 14:27,509
12/11/18 14:27,507
12/11/18 14:27,508
12/11/18 14:27,507
12/11/18 14:27,506
12/11/18 14:27,507
12/11/18 14:27,507
12/11/18 14:27,507
12/11/18 14:27,507
12/11/18 14:27,506
12/11/18 14:27,508
12/11/18 14:27,507
12/11/18 14:27,507
12/11/18 14:27,506
12/11/18 14:27,507
12/11/18 14:27,508
12/11/18 14:27,506
12/11/18 14:27,506
12/11/18 14:27,549
12/11/18 14:27,515
12/11/18 14:27,497
12/11/18 14:27,496
12/11/18 14:27,506
12/11/18 14:27,515
12/11/18 14:27,507
12/11/18 14:27,500
12/11/18 14:27,499
12/11/18 14:27,500
12/11/18 14:27,501
12/11/18 14:27,503
12/11/18 14:27,505
12/11/18 14:27,504
12/11/18 14:27,505
12/11/18 14:27,506
12/11/18 14:27,505
12/11/18 14:27,505
12/11/18 14:27,507
12/11/18 14:27,507
12/11/18 14:27,507
12/11/18 14:27,508
12/11/18 14:27,507
12/11/18 14:27,506
12/11/18 14:27,508
12/11/18 14:27,506
12/11/18 14:27,509
12/11/18 14:27,509
12/11/18 14:27,507
12/11/18 14:27,508
12/11/18 14:27,509
12/11/18 14:27,507
12/11/18 14:27,509
12/11/18 14:27,508
12/11/18 14:27,506
12/11/18 14:27,508
12/11/18 14:27,507
12/11/18 14:27,509
12/11/18 14:27,509
12/11/18 14:27,507
12/11/18 14:27,506
12/11/18 14:27,507
12/11/18 14:27,507
12/11/18 14:27,507
12/11/18 14:27,507
12/11/18 14:27,505
12/11/18 14:27,507
12/11/18 14:27,506
12/11/18 14:27,507
12/11/18 14:27,507
12/11/18 14:27,505
12/11/18 14:27,554
12/11/18 14:27,519
12/11/18 14:27,497
12/11/18 14:27,497
12/11/18 14:27,503
12/11/18 14:27,506
12/11/18 14:27,508
12/11/18 14:27,502
12/11/18 14:27,501
12/11/18 14:27,501
12/11/18 14:27,504
12/11/18 14:27,504
12/11/18 14:27,504
12/11/18 14:27,507
12/11/18 14:27,506
12/11/18 14:27,507
12/11/18 14:27,506
12/11/18 14:27,506
12/11/18 14:27,506
12/11/18 14:27,507
12/11/18 14:27,507
12/11/18 14:27,506
12/11/18 14:27,507
12/11/18 14:27,507
12/11/18 14:27,507
12/11/18 14:27,507
12/11/18 14:27,506
12/11/18 14:27,506
12/11/18 14:27,508
12/11/18 14:27,507
12/11/18 14:27,507
12/11/18 14:27,509
12/11/18 14:27,509
12/11/18 14:27,507
12/11/18 14:27,507
12/11/18 14:27,509
12/11/18 14:27,508
12/11/18 14:27,506
12/11/18 14:27,507
12/11/18 14:27,507
12/11/18 14:27,507
12/11/18 14:27,506
12/11/18 14:27,507
12/11/18 14:27,506
12/11/18 14:27,507
12/11/18 14:27,506
12/11/18 14:27,507
12/11/18 14:27,506
12/11/18 14:27,508
12/11/18 14:27,507
12/11/18 14:27,506
12/11/18 14:27,506
12/11/18 14:27,538
12/11/18 14:27,521
12/11/18 14:27,501
12/11/18 14:27,494
12/11/18 14:27,502
12/11/18 14:27,501
12/11/18 14:27,504
12/11/18 14:27,503
12/11/18 14:27,502
12/11/18 14:27,502
12/11/18 14:27,504
12/11/18 14:27,506
12/11/18 14:27,507
12/11/18 14:27,506
12/11/18 14:27,507
12/11/18 14:27,506
12/11/18 14:27,508
12/11/18 14:27,507
12/11/18 14:27,507
12/11/18 14:27,506
12/11/18 14:27,506
12/11/18 14:27,506
12/11/18 14:27,506
12/11/18 14:27,507
12/11/18 14:27,506
12/11/18 14:27,507
12/11/18 14:27,507
12/11/18 14:27,507
12/11/18 14:27,507
12/11/18 14:27,506
12/11/18 14:27,509
12/11/18 14:27,509
12/11/18 14:27,508
12/11/18 14:27,510
12/11/18 14:27,507
12/11/18 14:27,509
12/11/18 14:27,508
12/11/18 14:27,507
12/11/18 14:27,508
12/11/18 14:27,506
12/11/18 14:27,507
12/11/18 14:27,506
12/11/18 14:27,506
12/11/18 14:27,507
12/11/18 14:27,507
12/11/18 14:27,506
12/11/18 14:27,507
12/11/18 14:27,506
12/11/18 14:27,506
12/11/18 14:27,507
12/11/18 14:27,506
12/11/18 14:27,507
12/11/18 14:27,544
12/11/18 14:27,515
12/11/18 14:27,494
12/11/18 14:27,500
12/11/18 14:27,508
12/11/18 14:27,501
12/11/18 14:27,501
12/11/18 14:27,500
12/11/18 14:27,502
12/11/18 14:27,505
12/11/18 14:27,504
12/11/18 14:27,507
12/11/18 14:27,508
12/11/18 14:27,508
12/11/18 14:27,508
12/11/18 14:27,506
12/11/18 14:27,506
12/11/18 14:27,507
12/11/18 14:27,505
12/11/18 14:27,506
12/11/18 14:27,506
12/11/18 14:27,507
12/11/18 14:27,506
12/11/18 14:27,507
12/11/18 14:27,507
12/11/18 14:27,508
12/11/18 14:27,505
12/11/18 14:27,507
12/11/18 14:27,507
12/11/18 14:27,507
12/11/18 14:27,509
12/11/18 14:27,508
12/11/18 14:27,508
12/11/18 14:27,507
12/11/18 14:27,508
12/11/18 14:27,508
12/11/18 14:27,508
12/11/18 14:27,507
12/11/18 14:27,507
12/11/18 14:27,507
12/11/18 14:27,506
12/11/18 14:27,508
12/11/18 14:27,507
12/11/18 14:27,507
12/11/18 14:27,506
12/11/18 14:27,507
12/11/18 14:27,507
12/11/18 14:27,506
12/11/18 14:27,507
12/11/18 14:27,506
12/11/18 14:27,506
12/11/18 14:27,518
12/11/18 14:27,523
12/11/18 14:27,504
12/11/18 14:27,495
12/11/18 14:27,498
12/11/18 14:27,505
12/11/18 14:27,507
12/11/18 14:27,503
12/11/18 14:27,501
12/11/18 14:27,501
12/11/18 14:27,503
12/11/18 14:27,505
12/11/18 14:27,507
12/11/18 14:27,507
12/11/18 14:27,506
12/11/18 14:27,508
12/11/18 14:27,505
12/11/18 14:27,507
12/11/18 14:27,505
12/11/18 14:27,505
12/11/18 14:27,506
12/11/18 14:27,505
12/11/18 14:27,507
12/11/18 14:27,508
12/11/18 14:27,507
12/11/18 14:27,504
12/11/18 14:27,507
12/11/18 14:27,507
12/11/18 14:27,506
12/11/18 14:27,510
12/11/18 14:27,506
12/11/18 14:27,507
12/11/18 14:27,508
12/11/18 14:27,509
12/11/18 14:27,508
12/11/18 14:27,507
12/11/18 14:27,508
12/11/18 14:27,507
12/11/18 14:27,508
12/11/18 14:27,507
12/11/18 14:27,506
12/11/18 14:27,507
12/11/18 14:27,506
12/11/18 14:27,508
12/11/18 14:27,506
12/11/18 14:27,507
12/11/18 14:27,507
12/11/18 14:27,506
12/11/18 14:27,504
12/11/18 14:27,507
12/11/18 14:27,507
12/11/18 14:27,507
12/11/18 14:27,552
12/11/18 14:27,515
12/11/18 14:27,496
12/11/18 14:27,495
12/11/18 14:27,506
12/11/18 14:27,504
12/11/18 14:27,500
12/11/18 14:27,499
12/11/18 14:27,501
12/11/18 14:27,502
12/11/18 14:27,504
12/11/18 14:27,507
12/11/18 14:27,507
12/11/18 14:27,510
12/11/18 14:27,509
12/11/18 14:27,508
12/11/18 14:27,506
12/11/18 14:27,506
12/11/18 14:27,506
12/11/18 14:27,507
12/11/18 14:27,508
12/11/18 14:27,506
12/11/18 14:27,506
12/11/18 14:27,506
12/11/18 14:27,508
12/11/18 14:27,507
12/11/18 14:27,506
12/11/18 14:27,506
12/11/18 14:27,507
12/11/18 14:27,508
12/11/18 14:27,507
12/11/18 14:27,507
12/11/18 14:27,509
12/11/18 14:27,508
12/11/18 14:27,508
12/11/18 14:27,507
12/11/18 14:27,507
12/11/18 14:27,508
12/11/18 14:27,509
12/11/18 14:27,507
12/11/18 14:27,507
12/11/18 14:27,506
12/11/18 14:27,508
12/11/18 14:27,506
12/11/18 14:27,506
12/11/18 14:27,508
12/11/18 14:27,506
12/11/18 14:27,505
12/11/18 14:27,506
12/11/18 14:27,508
12/11/18 14:27,508
12/11/18 14:27,547
12/11/18 14:27,520
12/11/18 14:27,498
12/11/18 14:27,495
12/11/18 14:27,501
12/11/18 14:27,507
12/11/18 14:27,504
12/11/18 14:27,501
12/11/18 14:27,501
12/11/18 14:27,501
12/11/18 14:27,503
12/11/18 14:27,506
12/11/18 14:27,506
12/11/18 14:27,507
12/11/18 14:27,507
12/11/18 14:27,506
12/11/18 14:27,506
12/11/18 14:27,506
12/11/18 14:27,505
12/11/18 14:27,507
12/11/18 14:27,505
12/11/18 14:27,506
12/11/18 14:27,506
12/11/18 14:27,506
12/11/18 14:27,507
12/11/18 14:27,507
12/11/18 14:27,508
12/11/18 14:27,507
12/11/18 14:27,506
12/11/18 14:27,506
12/11/18 14:36,531
12/11/18 14:36,524
12/11/18 14:36,511
12/11/18 14:36,496
12/11/18 14:36,502
12/11/18 14:36,510
12/11/18 14:36,499
12/11/18 14:36,498
12/11/18 14:36,501
12/11/18 14:36,502
12/11/18 14:36,503
12/11/18 14:36,506
12/11/18 14:36,506
12/11/18 14:36,506
12/11/18 14:36,509
12/11/18 14:36,507
12/11/18 14:36,507
12/11/18 14:36,507
12/11/18 14:36,507
12/11/18 14:36,508
12/11/18 14:36,508
12/11/18 14:36,506
12/11/18 14:36,506
12/11/18 14:36,507
12/11/18 14:36,508
12/11/18 14:36,508
12/11/18 14:36,505
12/11/18 14:36,507
12/11/18 14:36,506
12/11/18 14:36,508
12/11/18 14:36,508
12/11/18 14:36,508
12/11/18 14:36,508
12/11/18 14:36,507
12/11/18 14:36,509
12/11/18 14:36,507
12/11/18 14:36,507
12/11/18 14:36,507
12/11/18 14:36,509
12/11/18 14:36,508
12/11/18 14:36,507
12/11/18 14:36,506
12/11/18 14:36,509
12/11/18 14:36,508
12/11/18 14:36,508
12/11/18 14:36,507
12/11/18 14:36,506
12/11/18 14:36,506
12/11/18 14:36,506
12/11/18 14:36,507
12/11/18 14:36,506
12/11/18 14:36,507
12/11/18 14:36,536
12/11/18 14:36,518
12/11/18 14:36,503
12/11/18 14:36,495
12/11/18 14:36,503
12/11/18 14:36,513
12/11/18 14:36,515
12/11/18 14:36,507
12/11/18 14:36,501
12/11/18 14:36,498
12/11/18 14:36,498
12/11/18 14:36,500
12/11/18 14:36,502
12/11/18 14:36,502
12/11/18 14:36,503
12/11/18 14:36,503
12/11/18 14:36,504
12/11/18 14:36,506
12/11/18 14:36,505
12/11/18 14:36,507
12/11/18 14:36,508
12/11/18 14:36,508
12/11/18 14:36,507
12/11/18 14:36,508
12/11/18 14:36,507
12/11/18 14:36,508
12/11/18 14:36,509
12/11/18 14:36,508
12/11/18 14:36,507
12/11/18 14:36,509
12/11/18 14:36,508
12/11/18 14:36,507
12/11/18 14:36,507
12/11/18 14:36,507
12/11/18 14:36,508
12/11/18 14:36,508
12/11/18 14:36,509
12/11/18 14:36,508
12/11/18 14:36,508
12/11/18 14:36,508
12/11/18 14:36,507
12/11/18 14:36,507
12/11/18 14:36,508
12/11/18 14:36,507
12/11/18 14:36,506
12/11/18 14:36,506
12/11/18 14:36,506
12/11/18 14:36,506
12/11/18 14:36,506
12/11/18 14:36,507
12/11/18 14:36,507
12/11/18 14:36,508
12/11/18 14:36,537
12/11/18 14:36,513
12/11/18 14:36,496
12/11/18 14:36,499
12/11/18 14:36,506
12/11/18 14:36,507
12/11/18 14:36,504
12/11/18 14:36,501
12/11/18 14:36,499
12/11/18 14:36,501
12/11/18 14:36,503
12/11/18 14:36,504
12/11/18 14:36,507
12/11/18 14:36,507
12/11/18 14:36,506
12/11/18 14:36,507
12/11/18 14:36,505
12/11/18 14:36,506
12/11/18 14:36,507
12/11/18 14:36,507
12/11/18 14:36,508
12/11/18 14:36,506
12/11/18 14:36,508
12/11/18 14:36,506
12/11/18 14:36,508
12/11/18 14:36,509
12/11/18 14:36,507
12/11/18 14:36,507
12/11/18 14:36,506
12/11/18 14:36,507
12/11/18 14:36,509
12/11/18 14:36,505
12/11/18 14:36,508
12/11/18 14:36,509
12/11/18 14:36,508
12/11/18 14:36,507
12/11/18 14:36,508
12/11/18 14:36,508
12/11/18 14:36,509
12/11/18 14:36,508
12/11/18 14:36,507
12/11/18 14:36,507
12/11/18 14:36,507
12/11/18 14:36,507
12/11/18 14:36,506
12/11/18 14:36,505
12/11/18 14:36,508
12/11/18 14:36,506
12/11/18 14:36,507
12/11/18 14:36,506
12/11/18 14:36,506
12/11/18 14:36,507
12/11/18 14:36,541
12/11/18 14:36,519
12/11/18 14:36,500
12/11/18 14:36,495
12/11/18 14:36,502
12/11/18 14:36,511
12/11/18 14:36,513
12/11/18 14:36,507
12/11/18 14:36,497
12/11/18 14:36,499
12/11/18 14:36,497
12/11/18 14:36,500
12/11/18 14:36,502
12/11/18 14:36,504
12/11/18 14:36,505
12/11/18 14:36,506
12/11/18 14:36,505
12/11/18 14:36,506
12/11/18 14:36,509
12/11/18 14:36,507
12/11/18 14:36,508
12/11/18 14:36,510
12/11/18 14:36,507
12/11/18 14:36,509
12/11/18 14:36,508
12/11/18 14:36,509
12/11/18 14:36,507
12/11/18 14:36,506
12/11/18 14:36,508
12/11/18 14:36,508
12/11/18 14:36,508
12/11/18 14:36,506
12/11/18 14:36,508
12/11/18 14:36,508
12/11/18 14:36,509
12/11/18 14:36,507
12/11/18 14:36,507
12/11/18 14:36,507
12/11/18 14:36,510
12/11/18 14:36,506
12/11/18 14:36,506
12/11/18 14:36,508
12/11/18 14:36,507
12/11/18 14:36,508
12/11/18 14:36,506
12/11/18 14:36,509
12/11/18 14:36,506
12/11/18 14:36,506
12/11/18 14:36,505
12/11/18 14:36,508
12/11/18 14:36,506
12/11/18 14:36,506
12/11/18 14:36,538
12/11/18 14:36,513
12/11/18 14:36,497
12/11/18 14:36,497
12/11/18 14:36,509
12/11/18 14:36,520
12/11/18 14:36,508
12/11/18 14:36,497
12/11/18 14:36,495
12/11/18 14:36,497
12/11/18 14:36,498
12/11/18 14:36,500
12/11/18 14:36,503
12/11/18 14:36,505
12/11/18 14:36,504
12/11/18 14:36,505
12/11/18 14:36,505
12/11/18 14:36,506
12/11/18 14:36,508
12/11/18 14:36,508
12/11/18 14:36,510
12/11/18 14:36,508
12/11/18 14:36,507
12/11/18 14:36,508
12/11/18 14:36,509
12/11/18 14:36,508
12/11/18 14:36,509
12/11/18 14:36,508
12/11/18 14:36,508
12/11/18 14:36,508
12/11/18 14:36,508
12/11/18 14:36,509
12/11/18 14:36,507
12/11/18 14:36,508
12/11/18 14:36,508
12/11/18 14:36,507
12/11/18 14:36,506
12/11/18 14:36,508
12/11/18 14:36,508
12/11/18 14:36,507
12/11/18 14:36,507
12/11/18 14:36,508
12/11/18 14:36,507
12/11/18 14:36,508
12/11/18 14:36,506
12/11/18 14:36,506
12/11/18 14:36,506
12/11/18 14:36,507
12/11/18 14:36,507
12/11/18 14:36,506
12/11/18 14:36,507
12/11/18 14:36,508
12/11/18 14:36,530
12/11/18 14:36,511
12/11/18 14:36,493
12/11/18 14:36,498
12/11/18 14:36,506
12/11/18 14:36,497
12/11/18 14:36,508
12/11/18 14:36,503
12/11/18 14:36,501
12/11/18 14:36,501
12/11/18 14:36,504
12/11/18 14:36,504
12/11/18 14:36,506
12/11/18 14:36,508
12/11/18 14:36,507
12/11/18 14:36,507
12/11/18 14:36,508
12/11/18 14:36,507
12/11/18 14:36,507
12/11/18 14:36,507
12/11/18 14:36,507
12/11/18 14:36,508
12/11/18 14:36,508
12/11/18 14:36,508
12/11/18 14:36,506
12/11/18 14:36,506
12/11/18 14:36,505
12/11/18 14:36,507
12/11/18 14:36,507
12/11/18 14:36,509
12/11/18 14:36,508
12/11/18 14:36,508
12/11/18 14:36,508
12/11/18 14:36,507
12/11/18 14:36,508
12/11/18 14:36,509
12/11/18 14:36,507
12/11/18 14:36,507
12/11/18 14:36,508
12/11/18 14:36,508
12/11/18 14:36,506
12/11/18 14:36,507
12/11/18 14:36,507
12/11/18 14:36,508
12/11/18 14:36,506
12/11/18 14:36,506
12/11/18 14:36,506
12/11/18 14:36,506
12/11/18 14:36,507
12/11/18 14:36,506
12/11/18 14:36,507
12/11/18 14:36,539
12/11/18 14:36,518
12/11/18 14:36,501
12/11/18 14:36,493
12/11/18 14:36,502
12/11/18 14:36,513
12/11/18 14:36,513
12/11/18 14:36,502
12/11/18 14:36,499
12/11/18 14:36,496
12/11/18 14:36,499
12/11/18 14:36,500
12/11/18 14:36,502
12/11/18 14:36,506
12/11/18 14:36,506
12/11/18 14:36,505
12/11/18 14:36,506
12/11/18 14:36,507
12/11/18 14:36,507
12/11/18 14:36,508
12/11/18 14:36,508
12/11/18 14:36,507
12/11/18 14:36,509
12/11/18 14:36,507
12/11/18 14:36,507
12/11/18 14:36,508
12/11/18 14:36,507
12/11/18 14:36,509
12/11/18 14:36,507
12/11/18 14:36,507
12/11/18 14:36,509
12/11/18 14:36,507
12/11/18 14:36,508
12/11/18 14:36,509
12/11/18 14:36,507
12/11/18 14:36,507
12/11/18 14:36,507
12/11/18 14:36,507
12/11/18 14:36,508
12/11/18 14:36,507
12/11/18 14:36,509
12/11/18 14:36,508
12/11/18 14:36,508
12/11/18 14:36,506
12/11/18 14:36,506
12/11/18 14:36,506
12/11/18 14:36,506
12/11/18 14:36,505
12/11/18 14:36,507
12/11/18 14:36,505
12/11/18 14:36,508
12/11/18 14:36,507
12/11/18 14:36,514
12/11/18 14:36,523
12/11/18 14:36,505
12/11/18 14:36,494
12/11/18 14:36,499
12/11/18 14:36,513
12/11/18 14:36,507
12/11/18 14:36,501
12/11/18 14:36,497
12/11/18 14:36,499
12/11/18 14:36,503
12/11/18 14:36,502
12/11/18 14:36,504
12/11/18 14:36,504
12/11/18 14:36,507
12/11/18 14:36,507
12/11/18 14:36,506
12/11/18 14:36,507
12/11/18 14:36,506
12/11/18 14:36,508
12/11/18 14:36,506
12/11/18 14:36,507
12/11/18 14:36,507
12/11/18 14:36,508
12/11/18 14:36,509
12/11/18 14:36,508
12/11/18 14:36,508
12/11/18 14:36,508
12/11/18 14:36,507
12/11/18 14:36,507
12/11/18 14:36,508
12/11/18 14:36,508
12/11/18 14:36,508
12/11/18 14:36,507
12/11/18 14:36,507
12/11/18 14:36,507
12/11/18 14:36,507
12/11/18 14:36,509
12/11/18 14:36,508
12/11/18 14:36,507
12/11/18 14:36,507
12/11/18 14:36,507
12/11/18 14:36,507
12/11/18 14:36,506
12/11/18 14:36,507
12/11/18 14:36,505
12/11/18 14:36,506
12/11/18 14:36,507
12/11/18 14:36,506
12/11/18 14:36,508
12/11/18 14:36,506
12/11/18 14:36,509
12/11/18 14:36,507
12/11/18 14:36,542
12/11/18 14:36,514
12/11/18 14:36,494
12/11/18 14:36,496
12/11/18 14:36,506
12/11/18 14:36,510
12/11/18 14:36,507
12/11/18 14:36,502
12/11/18 14:36,499
12/11/18 14:36,500
12/11/18 14:36,502
12/11/18 14:36,503
12/11/18 14:36,504
12/11/18 14:36,505
12/11/18 14:36,505
12/11/18 14:36,507
12/11/18 14:36,505
12/11/18 14:36,507
12/11/18 14:36,506
12/11/18 14:36,507
12/11/18 14:36,508
12/11/18 14:36,507
12/11/18 14:36,508
12/11/18 14:36,508
12/11/18 14:36,507
12/11/18 14:36,507
12/11/18 14:36,507
12/11/18 14:36,508
12/11/18 14:36,508
12/11/18 14:36,509
12/11/18 14:36,508
12/11/18 14:36,507
12/11/18 14:36,505
12/11/18 14:36,508
12/11/18 14:36,506
12/11/18 14:36,507
12/11/18 14:36,509
12/11/18 14:36,509
12/11/18 14:36,509
12/11/18 14:36,506
12/11/18 14:36,506
12/11/18 14:36,508
12/11/18 14:36,506
12/11/18 14:36,507
12/11/18 14:36,507
12/11/18 14:36,506
12/11/18 14:36,506
12/11/18 14:36,506
12/11/18 14:36,507
12/11/18 14:36,506
12/11/18 14:36,506
12/11/18 14:36,544
12/11/18 14:36,518
12/11/18 14:36,500
12/11/18 14:36,493
12/11/18 14:36,501
12/11/18 14:36,512
12/11/18 14:36,497
12/11/18 14:36,497
12/11/18 14:36,499
12/11/18 14:36,502
12/11/18 14:36,505
12/11/18 14:36,508
12/11/18 14:36,508
12/11/18 14:36,508
12/11/18 14:36,509
12/11/18 14:36,507
12/11/18 14:36,507
12/11/18 14:36,509
12/11/18 14:36,508
12/11/18 14:36,508
12/11/18 14:36,506
12/11/18 14:36,507
12/11/18 14:36,508
12/11/18 14:36,508
12/11/18 14:36,508
12/11/18 14:36,506
12/11/18 14:36,508
12/11/18 14:36,508
12/11/18 14:36,506
12/11/18 14:36,507
12/11/18 14:36,507
12/11/18 14:36,507
12/11/18 14:36,507
12/11/18 14:36,508
12/11/18 14:36,508
12/11/18 14:36,507
12/11/18 14:36,508
12/11/18 14:36,508
12/11/18 14:36,508
12/11/18 14:36,508
12/11/18 14:36,506
12/11/18 14:36,507
12/11/18 14:36,506
12/11/18 14:36,507
12/11/18 14:36,507
12/11/18 14:36,505
12/11/18 14:36,505
12/11/18 14:36,507
12/11/18 14:36,508
12/11/18 14:36,508
12/11/18 14:36,508
12/11/18 14:36,507
12/11/18 14:36,529
12/11/18 14:36,520
12/11/18 14:36,500
12/11/18 14:36,493
12/11/18 14:36,501
12/11/18 14:36,508
12/11/18 14:36,508
12/11/18 14:36,500
12/11/18 14:36,499
12/11/18 14:36,499
12/11/18 14:36,503
12/11/18 14:36,504
12/11/18 14:36,505
12/11/18 14:36,507
12/11/18 14:36,506
12/11/18 14:36,508
12/11/18 14:36,506
12/11/18 14:36,507
12/11/18 14:36,505
12/11/18 14:36,505
12/11/18 14:36,507
12/11/18 14:36,507
12/11/18 14:36,508
12/11/18 14:36,506
12/11/18 14:36,508
12/11/18 14:36,507
12/11/18 14:36,508
12/11/18 14:36,507
12/11/18 14:36,506
12/11/18 14:36,509
12/11/18 14:36,508
12/11/18 14:36,507
12/11/18 14:36,508
12/11/18 14:36,507
12/11/18 14:36,508
12/11/18 14:36,509
12/11/18 14:36,507
12/11/18 14:36,507
12/11/18 14:36,508
12/11/18 14:36,507
12/11/18 14:36,506
12/11/18 14:36,506
12/11/18 14:36,506
12/11/18 14:36,506
12/11/18 14:36,506
12/11/18 14:36,508
12/11/18 14:36,506
12/11/18 14:36,507
12/11/18 14:36,507
12/11/18 14:36,507
12/11/18 14:36,508
12/11/18 14:36,507
12/11/18 14:36,506
12/11/18 14:36,557
12/11/18 14:36,518
12/11/18 14:36,496
12/11/18 14:36,495
12/11/18 14:36,508
12/11/18 14:36,499
12/11/18 14:36,501
12/11/18 14:36,502
12/11/18 14:36,505
12/11/18 14:36,503
12/11/18 14:36,504
12/11/18 14:36,505
12/11/18 14:36,505
12/11/18 14:36,505
12/11/18 14:36,506
12/11/18 14:36,505
12/11/18 14:36,506
12/11/18 14:36,507
12/11/18 14:36,506
12/11/18 14:36,508
12/11/18 14:36,507
12/11/18 14:36,507
12/11/18 14:36,508
12/11/18 14:36,508
12/11/18 14:36,508
12/11/18 14:36,507
12/11/18 14:36,508
12/11/18 14:36,507
12/11/18 14:45,507
12/11/18 14:45,508
12/11/18 14:45,508
12/11/18 14:45,508
12/11/18 14:45,508
12/11/18 14:45,508
12/11/18 14:45,509
12/11/18 14:45,509
12/11/18 14:45,507
12/11/18 14:45,506
12/11/18 14:45,506
12/11/18 14:45,509
12/11/18 14:45,508
12/11/18 14:45,508
12/11/18 14:45,509
12/11/18 14:45,507
12/11/18 14:45,506
12/11/18 14:45,507
12/11/18 14:45,506
12/11/18 14:45,507
12/11/18 14:45,507
12/11/18 14:45,506
12/11/18 14:45,506
12/11/18 14:45,506
12/11/18 14:45,507
12/11/18 14:45,507
12/11/18 14:45,508
12/11/18 14:45,537
12/11/18 14:45,514
12/11/18 14:45,494
12/11/18 14:45,498
12/11/18 14:45,506
12/11/18 14:45,507
12/11/18 14:45,511
12/11/18 14:45,503
12/11/18 14:45,497
12/11/18 14:45,498
12/11/18 14:45,501
12/11/18 14:45,501
12/11/18 14:45,505
12/11/18 14:45,505
12/11/18 14:45,507
12/11/18 14:45,506
12/11/18 14:45,508
12/11/18 14:45,508
12/11/18 14:45,509
12/11/18 14:45,509
12/11/18 14:45,509
12/11/18 14:45,509
12/11/18 14:45,509
12/11/18 14:45,506
12/11/18 14:45,508
12/11/18 14:45,509
12/11/18 14:45,508
12/11/18 14:45,508
12/11/18 14:45,507
12/11/18 14:45,507
12/11/18 14:45,510
12/11/18 14:45,508
12/11/18 14:45,509
12/11/18 14:45,508
12/11/18 14:45,507
12/11/18 14:45,507
12/11/18 14:45,506
12/11/18 14:45,506
12/11/18 14:45,509
12/11/18 14:45,506
12/11/18 14:45,508
12/11/18 14:45,506
12/11/18 14:45,507
12/11/18 14:45,506
12/11/18 14:45,506
12/11/18 14:45,508
12/11/18 14:45,506
12/11/18 14:45,507
12/11/18 14:45,506
12/11/18 14:45,505
12/11/18 14:45,506
12/11/18 14:45,507
12/11/18 14:45,534
12/11/18 14:45,517
12/11/18 14:45,501
12/11/18 14:45,496
12/11/18 14:45,498
12/11/18 14:45,507
12/11/18 14:45,508
12/11/18 14:45,503
12/11/18 14:45,499
12/11/18 14:45,500
12/11/18 14:45,500
12/11/18 14:45,502
12/11/18 14:45,505
12/11/18 14:45,505
12/11/18 14:45,507
12/11/18 14:45,506
12/11/18 14:45,506
12/11/18 14:45,507
12/11/18 14:45,507
12/11/18 14:45,506
12/11/18 14:45,508
12/11/18 14:45,506
12/11/18 14:45,508
12/11/18 14:45,507
12/11/18 14:45,508
12/11/18 14:45,507
12/11/18 14:45,509
12/11/18 14:45,507
12/11/18 14:45,507
12/11/18 14:45,508
12/11/18 14:45,508
12/11/18 14:45,509
12/11/18 14:45,507
12/11/18 14:45,508
12/11/18 14:45,509
12/11/18 14:45,506
12/11/18 14:45,506
12/11/18 14:45,508
12/11/18 14:45,507
12/11/18 14:45,507
12/11/18 14:45,506
12/11/18 14:45,509
12/11/18 14:45,507
12/11/18 14:45,507
12/11/18 14:45,507
12/11/18 14:45,507
12/11/18 14:45,506
12/11/18 14:45,506
12/11/18 14:45,506
12/11/18 14:45,506
12/11/18 14:45,507
12/11/18 14:45,506
12/11/18 14:45,506
12/11/18 14:45,520
12/11/18 14:45,519
12/11/18 14:45,505
12/11/18 14:45,495
12/11/18 14:45,501
12/11/18 14:45,509
12/11/18 14:45,513
12/11/18 14:45,507
12/11/18 14:45,502
12/11/18 14:45,500
12/11/18 14:45,499
12/11/18 14:45,500
12/11/18 14:45,502
12/11/18 14:45,503
12/11/18 14:45,504
12/11/18 14:45,504
12/11/18 14:45,505
12/11/18 14:45,506
12/11/18 14:45,505
12/11/18 14:45,507
12/11/18 14:45,508
12/11/18 14:45,508
12/11/18 14:45,508
12/11/18 14:45,508
12/11/18 14:45,508
12/11/18 14:45,507
12/11/18 14:45,507
12/11/18 14:45,508
12/11/18 14:45,508
12/11/18 14:45,508
12/11/18 14:45,509
12/11/18 14:45,508
12/11/18 14:45,508
12/11/18 14:45,508
12/11/18 14:45,507
12/11/18 14:45,508
12/11/18 14:45,508
12/11/18 14:45,508
12/11/18 14:45,507
12/11/18 14:45,508
12/11/18 14:45,507
12/11/18 14:45,507
12/11/18 14:45,508
12/11/18 14:45,506
12/11/18 14:45,509
12/11/18 14:45,507
12/11/18 14:45,507
12/11/18 14:45,506
12/11/18 14:45,505
12/11/18 14:45,506
12/11/18 14:45,505
12/11/18 14:45,506
12/11/18 14:45,549
12/11/18 14:45,517
12/11/18 14:45,500
12/11/18 14:45,495
12/11/18 14:45,503
12/11/18 14:45,508
12/11/18 14:45,507
12/11/18 14:45,502
12/11/18 14:45,498
12/11/18 14:45,498
12/11/18 14:45,501
12/11/18 14:45,501
12/11/18 14:45,505
12/11/18 14:45,506
12/11/18 14:45,507
12/11/18 14:45,508
12/11/18 14:45,507
12/11/18 14:45,508
12/11/18 14:45,507
12/11/18 14:45,508
12/11/18 14:45,506
12/11/18 14:45,508
12/11/18 14:45,508
12/11/18 14:45,508
12/11/18 14:45,507
12/11/18 14:45,506
12/11/18 14:45,508
12/11/18 14:45,506
12/11/18 14:45,507
12/11/18 14:45,508
12/11/18 14:45,508
12/11/18 14:45,508
12/11/18 14:45,508
12/11/18 14:45,508
12/11/18 14:45,508
12/11/18 14:45,507
12/11/18 14:45,507
12/11/18 14:45,508
12/11/18 14:45,507
12/11/18 14:45,508
12/11/18 14:45,505
12/11/18 14:45,506
12/11/18 14:45,507
12/11/18 14:45,507
12/11/18 14:45,507
12/11/18 14:45,506
12/11/18 14:45,506
12/11/18 14:45,507
12/11/18 14:45,505
12/11/18 14:45,506
12/11/18 14:45,508
12/11/18 14:45,506
12/11/18 14:45,510
12/11/18 14:45,524
12/11/18 14:45,507
12/11/18 14:45,494
12/11/18 14:45,501
12/11/18 14:45,511
12/11/18 14:45,510
12/11/18 14:45,504
12/11/18 14:45,498
12/11/18 14:45,497
12/11/18 14:45,500
12/11/18 14:45,501
12/11/18 14:45,504
12/11/18 14:45,505
12/11/18 14:45,507
12/11/18 14:45,507
12/11/18 14:45,506
12/11/18 14:45,507
12/11/18 14:45,507
12/11/18 14:45,506
12/11/18 14:45,506
12/11/18 14:45,508
12/11/18 14:45,508
12/11/18 14:45,508
12/11/18 14:45,507
12/11/18 14:45,508
12/11/18 14:45,506
12/11/18 14:45,508
12/11/18 14:45,507
12/11/18 14:45,508
12/11/18 14:45,508
12/11/18 14:45,508
12/11/18 14:45,509
12/11/18 14:45,507
12/11/18 14:45,508
12/11/18 14:45,508
12/11/18 14:45,506
12/11/18 14:45,508
12/11/18 14:45,507
12/11/18 14:45,507
12/11/18 14:45,508
12/11/18 14:45,508
12/11/18 14:45,506
12/11/18 14:45,508
12/11/18 14:45,508
12/11/18 14:45,507
12/11/18 14:45,508
12/11/18 14:45,507
12/11/18 14:45,505
12/11/18 14:45,505
12/11/18 14:45,507
12/11/18 14:45,507
12/11/18 14:45,507
12/11/18 14:45,513
12/11/18 14:45,522
12/11/18 14:45,505
12/11/18 14:45,494
12/11/18 14:45,500
12/11/18 14:45,508
12/11/18 14:45,509
12/11/18 14:45,507
12/11/18 14:45,501
12/11/18 14:45,499
12/11/18 14:45,500
12/11/18 14:45,501
12/11/18 14:45,502
12/11/18 14:45,504
12/11/18 14:45,503
12/11/18 14:45,506
12/11/18 14:45,507
12/11/18 14:45,506
12/11/18 14:45,506
12/11/18 14:45,507
12/11/18 14:45,507
12/11/18 14:45,509
12/11/18 14:45,510
12/11/18 14:45,507
12/11/18 14:45,508
12/11/18 14:45,507
12/11/18 14:45,508
12/11/18 14:45,508
12/11/18 14:45,507
12/11/18 14:45,507
12/11/18 14:45,508
12/11/18 14:45,509
12/11/18 14:45,507
12/11/18 14:45,508
12/11/18 14:45,507
12/11/18 14:45,507
12/11/18 14:45,508
12/11/18 14:45,509
12/11/18 14:45,508
12/11/18 14:45,509
12/11/18 14:45,507
12/11/18 14:45,507
12/11/18 14:45,507
12/11/18 14:45,507
12/11/18 14:45,506
12/11/18 14:45,506
12/11/18 14:45,508
12/11/18 14:45,506
12/11/18 14:45,506
12/11/18 14:45,506
12/11/18 14:45,506
12/11/18 14:45,507
12/11/18 14:45,532
12/11/18 14:45,511
12/11/18 14:45,497
12/11/18 14:45,500
12/11/18 14:45,507
12/11/18 14:45,514
12/11/18 14:45,507
12/11/18 14:45,498
12/11/18 14:45,497
12/11/18 14:45,497
12/11/18 14:45,500
12/11/18 14:45,500
12/11/18 14:45,503
12/11/18 14:45,505
12/11/18 14:45,506
12/11/18 14:45,507
12/11/18 14:45,507
12/11/18 14:45,507
12/11/18 14:45,507
12/11/18 14:45,509
12/11/18 14:45,506
12/11/18 14:45,507
12/11/18 14:45,508
12/11/18 14:45,506
12/11/18 14:45,507
12/11/18 14:45,508
12/11/18 14:45,508
12/11/18 14:45,507
12/11/18 14:45,509
12/11/18 14:45,509
12/11/18 14:45,508
12/11/18 14:45,509
12/11/18 14:45,506
12/11/18 14:45,506
12/11/18 14:45,508
12/11/18 14:45,507
12/11/18 14:45,508
12/11/18 14:45,508
12/11/18 14:45,507
12/11/18 14:45,508
12/11/18 14:45,506
12/11/18 14:45,509
12/11/18 14:45,507
12/11/18 14:45,506
12/11/18 14:45,505
12/11/18 14:45,508
12/11/18 14:45,506
12/11/18 14:45,507
12/11/18 14:45,505
12/11/18 14:45,506
12/11/18 14:45,507
12/11/18 14:45,507
12/11/18 14:45,523
12/11/18 14:45,521
12/11/18 14:45,503
12/11/18 14:45,494
12/11/18 14:45,499
12/11/18 14:45,513
12/11/18 14:45,516
12/11/18 14:45,507
12/11/18 14:45,498
12/11/18 14:45,498
12/11/18 14:45,498
12/11/18 14:45,499
12/11/18 14:45,501
12/11/18 14:45,502
12/11/18 14:45,504
12/11/18 14:45,505
12/11/18 14:45,506
12/11/18 14:45,506
12/11/18 14:45,506
12/11/18 14:45,507
12/11/18 14:45,508
12/11/18 14:45,506
12/11/18 14:45,509
12/11/18 14:45,510
12/11/18 14:45,508
12/11/18 14:45,509
12/11/18 14:45,507
12/11/18 14:45,509
12/11/18 14:45,508
12/11/18 14:45,508
12/11/18 14:45,508
12/11/18 14:45,509
12/11/18 14:45,508
12/11/18 14:45,508
12/11/18 14:45,505
12/11/18 14:45,508
12/11/18 14:45,508
12/11/18 14:45,508
12/11/18 14:45,507
12/11/18 14:45,506
12/11/18 14:45,506
12/11/18 14:45,507
12/11/18 14:45,506
12/11/18 14:45,508
12/11/18 14:45,507
12/11/18 14:45,506
12/11/18 14:45,507
12/11/18 14:45,506
12/11/18 14:45,507
12/11/18 14:45,507
12/11/18 14:45,507
12/11/18 14:45,506
12/11/18 14:45,514
12/11/18 14:45,520
12/11/18 14:45,509
12/11/18 14:45,495
12/11/18 14:45,501
12/11/18 14:45,510
12/11/18 14:45,511
12/11/18 14:45,505
12/11/18 14:45,500
12/11/18 14:45,500
12/11/18 14:45,500
12/11/18 14:45,501
12/11/18 14:45,502
12/11/18 14:45,503
12/11/18 14:45,504
12/11/18 14:45,505
12/11/18 14:45,505
12/11/18 14:45,506
12/11/18 14:45,506
12/11/18 14:45,506
12/11/18 14:45,507
12/11/18 14:45,507
12/11/18 14:45,508
12/11/18 14:45,507
12/11/18 14:45,508
12/11/18 14:45,509
12/11/18 14:45,509
12/11/18 14:45,507
12/11/18 14:45,508
12/11/18 14:45,509
12/11/18 14:45,507
12/11/18 14:45,507
12/11/18 14:45,509
12/11/18 14:45,509
12/11/18 14:45,508
12/11/18 14:45,508
12/11/18 14:45,510
12/11/18 14:45,507
12/11/18 14:45,507
12/11/18 14:45,507
12/11/18 14:45,506
12/11/18 14:45,507
12/11/18 14:45,506
12/11/18 14:45,505
12/11/18 14:45,506
12/11/18 14:45,507
12/11/18 14:45,507
12/11/18 14:45,506
12/11/18 14:45,507
12/11/18 14:45,507
12/11/18 14:45,506
12/11/18 14:45,505
12/11/18 14:45,508
12/11/18 14:45,540
12/11/18 14:45,514
12/11/18 14:45,495
12/11/18 14:45,498
12/11/18 14:45,508
12/11/18 14:45,507
12/11/18 14:45,508
12/11/18 14:45,502
12/11/18 14:45,498
12/11/18 14:45,502
12/11/18 14:45,500
12/11/18 14:45,503
12/11/18 14:45,504
12/11/18 14:45,506
12/11/18 14:45,506
12/11/18 14:45,507
12/11/18 14:45,508
12/11/18 14:45,507
12/11/18 14:45,506
12/11/18 14:45,507
12/11/18 14:45,507
12/11/18 14:45,506
12/11/18 14:45,508
12/11/18 14:45,507
12/11/18 14:45,508
12/11/18 14:45,507
12/11/18 14:45,509
12/11/18 14:45,507
12/11/18 14:45,507
12/11/18 14:45,506
12/11/18 14:45,508
12/11/18 14:45,507
12/11/18 14:45,507
12/11/18 14:45,509
12/11/18 14:45,509
12/11/18 14:45,508
12/11/18 14:45,507
12/11/18 14:45,507
12/11/18 14:45,507
12/11/18 14:45,506
12/11/18 14:45,507
12/11/18 14:45,507
12/11/18 14:45,507
12/11/18 14:45,507
12/11/18 14:45,507
12/11/18 14:45,506
12/11/18 14:45,506
12/11/18 14:45,507
12/11/18 14:45,505
12/11/18 14:45,507
12/11/18 14:45,505
12/11/18 14:45,506
12/11/18 14:45,507
12/11/18 14:45,552
12/11/18 14:45,516
12/11/18 14:45,497
12/11/18 14:45,495
12/11/18 14:45,499
12/11/18 14:45,514
12/11/18 14:45,510
12/11/18 14:45,504
12/11/18 14:45,500
12/11/18 14:45,499
12/11/18 14:45,501
12/11/18 14:45,502
12/11/18 14:45,503
12/11/18 14:45,504
12/11/18 14:45,503
12/11/18 14:45,505
12/11/18 14:45,507
12/11/18 14:45,507
12/11/18 14:45,505
12/11/18 14:45,508
12/11/18 14:45,507
12/11/18 14:45,507
12/11/18 14:45,507
12/11/18 14:45,509
12/11/18 14:45,509
12/11/18 14:45,509
12/11/18 14:45,507
12/11/18 14:45,508
12/11/18 14:45,507
12/11/18 14:45,507
12/11/18 14:45,507
12/11/18 14:45,508
12/11/18 14:45,508
12/11/18 14:45,507
12/11/18 14:45,507
12/11/18 14:45,507
12/11/18 14:45,507
12/11/18 14:45,509
12/11/18 14:45,508
12/11/18 14:45,506
12/11/18 14:45,508
12/11/18 14:45,505
12/11/18 14:45,506
12/11/18 14:45,507
12/11/18 14:45,508
12/11/18 14:45,506
12/11/18 14:45,507
12/11/18 14:45,505
12/11/18 14:45,505
12/11/18 14:54,510
12/11/18 14:54,510
12/11/18 14:54,508
12/11/18 14:54,509
12/11/18 14:54,510
12/11/18 14:54,510
12/11/18 14:54,508
12/11/18 14:54,509
12/11/18 14:54,508
12/11/18 14:54,507
12/11/18 14:54,507
12/11/18 14:54,507
12/11/18 14:54,509
12/11/18 14:54,507
12/11/18 14:54,508
12/11/18 14:54,508
12/11/18 14:54,506
12/11/18 14:54,506
12/11/18 14:54,507
12/11/18 14:54,506
12/11/18 14:54,507
12/11/18 14:54,507
12/11/18 14:54,506
12/11/18 14:54,505
12/11/18 14:54,506
12/11/18 14:54,507
12/11/18 14:54,506
12/11/18 14:54,549
12/11/18 14:54,513
12/11/18 14:54,496
12/11/18 14:54,497
12/11/18 14:54,508
12/11/18 14:54,512
12/11/18 14:54,508
12/11/18 14:54,503
12/11/18 14:54,500
12/11/18 14:54,499
12/11/18 14:54,501
12/11/18 14:54,500
12/11/18 14:54,502
12/11/18 14:54,504
12/11/18 14:54,505
12/11/18 14:54,506
12/11/18 14:54,506
12/11/18 14:54,506
12/11/18 14:54,506
12/11/18 14:54,507
12/11/18 14:54,508
12/11/18 14:54,509
12/11/18 14:54,508
12/11/18 14:54,509
12/11/18 14:54,508
12/11/18 14:54,508
12/11/18 14:54,509
12/11/18 14:54,508
12/11/18 14:54,509
12/11/18 14:54,509
12/11/18 14:54,507
12/11/18 14:54,508
12/11/18 14:54,509
12/11/18 14:54,507
12/11/18 14:54,508
12/11/18 14:54,506
12/11/18 14:54,507
12/11/18 14:54,508
12/11/18 14:54,510
12/11/18 14:54,508
12/11/18 14:54,507
12/11/18 14:54,506
12/11/18 14:54,506
12/11/18 14:54,506
12/11/18 14:54,506
12/11/18 14:54,506
12/11/18 14:54,506
12/11/18 14:54,505
12/11/18 14:54,506
12/11/18 14:54,506
12/11/18 14:54,504
12/11/18 14:54,508
12/11/18 14:54,536
12/11/18 14:54,513
12/11/18 14:54,496
12/11/18 14:54,500
12/11/18 14:54,512
12/11/18 14:54,506
12/11/18 14:54,505
12/11/18 14:54,502
12/11/18 14:54,502
12/11/18 14:54,500
12/11/18 14:54,500
12/11/18 14:54,502
12/11/18 14:54,503
12/11/18 14:54,504
12/11/18 14:54,505
12/11/18 14:54,504
12/11/18 14:54,506
12/11/18 14:54,506
12/11/18 14:54,507
12/11/18 14:54,508
12/11/18 14:54,508
12/11/18 14:54,507
12/11/18 14:54,509
12/11/18 14:54,509
12/11/18 14:54,509
12/11/18 14:54,507
12/11/18 14:54,507
12/11/18 14:54,508
12/11/18 14:54,509
12/11/18 14:54,508
12/11/18 14:54,508
12/11/18 14:54,508
12/11/18 14:54,508
12/11/18 14:54,508
12/11/18 14:54,508
12/11/18 14:54,508
12/11/18 14:54,509
12/11/18 14:54,506
12/11/18 14:54,508
12/11/18 14:54,507
12/11/18 14:54,508
12/11/18 14:54,507
12/11/18 14:54,507
12/11/18 14:54,505
12/11/18 14:54,507
12/11/18 14:54,506
12/11/18 14:54,505
12/11/18 14:54,507
12/11/18 14:54,507
12/11/18 14:54,507
12/11/18 14:54,507
12/11/18 14:54,508
12/11/18 14:54,531
12/11/18 14:54,510
12/11/18 14:54,498
12/11/18 14:54,497
12/11/18 14:54,506
12/11/18 14:54,513
12/11/18 14:54,509
12/11/18 14:54,504
12/11/18 14:54,501
12/11/18 14:54,500
12/11/18 14:54,500
12/11/18 14:54,501
12/11/18 14:54,502
12/11/18 14:54,504
12/11/18 14:54,505
12/11/18 14:54,504
12/11/18 14:54,504
12/11/18 14:54,507
12/11/18 14:54,507
12/11/18 14:54,508
12/11/18 14:54,509
12/11/18 14:54,510
12/11/18 14:54,508
12/11/18 14:54,508
12/11/18 14:54,509
12/11/18 14:54,508
12/11/18 14:54,508
12/11/18 14:54,507
12/11/18 14:54,510
12/11/18 14:54,508
12/11/18 14:54,508
12/11/18 14:54,508
12/11/18 14:54,508
12/11/18 14:54,507
12/11/18 14:54,508
12/11/18 14:54,508
12/11/18 14:54,508
12/11/18 14:54,507
12/11/18 14:54,507
12/11/18 14:54,506
12/11/18 14:54,505
12/11/18 14:54,506
12/11/18 14:54,507
12/11/18 14:54,506
12/11/18 14:54,507
12/11/18 14:54,505
12/11/18 14:54,507
12/11/18 14:54,506
12/11/18 14:54,507
12/11/18 14:54,506
12/11/18 14:54,507
12/11/18 14:54,507
12/11/18 14:54,547
12/11/18 14:54,514
12/11/18 14:54,495
12/11/18 14:54,498
12/11/18 14:54,510
12/11/18 14:54,518
12/11/18 14:54,513
12/11/18 14:54,501
12/11/18 14:54,496
12/11/18 14:54,493
12/11/18 14:54,497
12/11/18 14:54,498
12/11/18 14:54,502
12/11/18 14:54,502
12/11/18 14:54,503
12/11/18 14:54,505
12/11/18 14:54,507
12/11/18 14:54,506
12/11/18 14:54,505
12/11/18 14:54,508
12/11/18 14:54,508
12/11/18 14:54,510
12/11/18 14:54,507
12/11/18 14:54,509
12/11/18 14:54,509
12/11/18 14:54,509
12/11/18 14:54,509
12/11/18 14:54,509
12/11/18 14:54,509
12/11/18 14:54,509
12/11/18 14:54,508
12/11/18 14:54,509
12/11/18 14:54,508
12/11/18 14:54,507
12/11/18 14:54,507
12/11/18 14:54,508
12/11/18 14:54,507
12/11/18 14:54,506
12/11/18 14:54,506
12/11/18 14:54,507
12/11/18 14:54,509
12/11/18 14:54,508
12/11/18 14:54,506
12/11/18 14:54,507
12/11/18 14:54,504
12/11/18 14:54,506
12/11/18 14:54,507
12/11/18 14:54,506
12/11/18 14:54,505
12/11/18 14:54,507
12/11/18 14:54,507
12/11/18 14:54,507
12/11/18 14:54,549
12/11/18 14:54,516
12/11/18 14:54,498
12/11/18 14:54,495
12/11/18 14:54,504
12/11/18 14:54,507
12/11/18 14:54,516
12/11/18 14:54,511
12/11/18 14:54,500
12/11/18 14:54,495
12/11/18 14:54,495
12/11/18 14:54,498
12/11/18 14:54,502
12/11/18 14:54,502
12/11/18 14:54,504
12/11/18 14:54,505
12/11/18 14:54,505
12/11/18 14:54,508
12/11/18 14:54,508
12/11/18 14:54,507
12/11/18 14:54,508
12/11/18 14:54,508
12/11/18 14:54,507
12/11/18 14:54,509
12/11/18 14:54,508
12/11/18 14:54,510
12/11/18 14:54,506
12/11/18 14:54,508
12/11/18 14:54,510
12/11/18 14:54,509
12/11/18 14:54,509
12/11/18 14:54,507
12/11/18 14:54,508
12/11/18 14:54,508
12/11/18 14:54,508
12/11/18 14:54,508
12/11/18 14:54,507
12/11/18 14:54,508
12/11/18 14:54,507
12/11/18 14:54,508
12/11/18 14:54,506
12/11/18 14:54,506
12/11/18 14:54,507
12/11/18 14:54,505
12/11/18 14:54,506
12/11/18 14:54,505
12/11/18 14:54,506
12/11/18 14:54,506
12/11/18 14:54,507
12/11/18 14:54,506
12/11/18 14:54,507
12/11/18 14:54,511
12/11/18 14:54,517
12/11/18 14:54,507
12/11/18 14:54,499
12/11/18 14:54,502
12/11/18 14:54,515
12/11/18 14:54,512
12/11/18 14:54,503
12/11/18 14:54,499
12/11/18 14:54,499
12/11/18 14:54,499
12/11/18 14:54,498
12/11/18 14:54,500
12/11/18 14:54,501
12/11/18 14:54,503
12/11/18 14:54,504
12/11/18 14:54,505
12/11/18 14:54,508
12/11/18 14:54,507
12/11/18 14:54,507
12/11/18 14:54,509
12/11/18 14:54,508
12/11/18 14:54,508
12/11/18 14:54,509
12/11/18 14:54,508
12/11/18 14:54,508
12/11/18 14:54,510
12/11/18 14:54,509
12/11/18 14:54,509
12/11/18 14:54,506
12/11/18 14:54,509
12/11/18 14:54,507
12/11/18 14:54,509
12/11/18 14:54,508
12/11/18 14:54,508
12/11/18 14:54,509
12/11/18 14:54,508
12/11/18 14:54,507
12/11/18 14:54,507
12/11/18 14:54,507
12/11/18 14:54,507
12/11/18 14:54,507
12/11/18 14:54,507
12/11/18 14:54,506
12/11/18 14:54,506
12/11/18 14:54,506
12/11/18 14:54,506
12/11/18 14:54,507
12/11/18 14:54,506
12/11/18 14:54,506
12/11/18 14:54,507
12/11/18 14:54,510
12/11/18 14:54,523
12/11/18 14:54,508
12/11/18 14:54,497
12/11/18 14:54,502
12/11/18 14:54,511
12/11/18 14:54,517
12/11/18 14:54,505
12/11/18 14:54,498
12/11/18 14:54,495
12/11/18 14:54,496
12/11/18 14:54,499
12/11/18 14:54,500
12/11/18 14:54,503
12/11/18 14:54,503
12/11/18 14:54,505
12/11/18 14:54,507
12/11/18 14:54,507
12/11/18 14:54,509
12/11/18 14:54,507
12/11/18 14:54,506
12/11/18 14:54,508
12/11/18 14:54,508
12/11/18 14:54,509
12/11/18 14:54,509
12/11/18 14:54,510
12/11/18 14:54,507
12/11/18 14:54,507
12/11/18 14:54,509
12/11/18 14:54,509
12/11/18 14:54,508
12/11/18 14:54,508
12/11/18 14:54,508
12/11/18 14:54,508
12/11/18 14:54,507
12/11/18 14:54,506
12/11/18 14:54,507
12/11/18 14:54,509
12/11/18 14:54,508
12/11/18 14:54,507
12/11/18 14:54,508
12/11/18 14:54,508
12/11/18 14:54,507
12/11/18 14:54,506
12/11/18 14:54,505
12/11/18 14:54,507
12/11/18 14:54,507
12/11/18 14:54,504
12/11/18 14:54,506
12/11/18 14:54,506
12/11/18 14:54,506
12/11/18 14:54,506
12/11/18 14:54,506
12/11/18 14:54,560
12/11/18 14:54,513
12/11/18 14:54,499
12/11/18 14:54,498
12/11/18 14:54,505
12/11/18 14:54,514
12/11/18 14:54,515
12/11/18 14:54,503
12/11/18 14:54,496
12/11/18 14:54,495
12/11/18 14:54,496
12/11/18 14:54,498
12/11/18 14:54,501
12/11/18 14:54,504
12/11/18 14:54,504
12/11/18 14:54,507
12/11/18 14:54,506
12/11/18 14:54,507
12/11/18 14:54,507
12/11/18 14:54,509
12/11/18 14:54,509
12/11/18 14:54,509
12/11/18 14:54,508
12/11/18 14:54,510
12/11/18 14:54,510
12/11/18 14:54,508
12/11/18 14:54,506
12/11/18 14:54,508
12/11/18 14:54,510
12/11/18 14:54,506
12/11/18 14:54,509
12/11/18 14:54,508
12/11/18 14:54,510
12/11/18 14:54,508
12/11/18 14:54,508
12/11/18 14:54,507
12/11/18 14:54,507
12/11/18 14:54,507
12/11/18 14:54,506
12/11/18 14:54,507
12/11/18 14:54,507
12/11/18 14:54,507
12/11/18 14:54,507
12/11/18 14:54,506
12/11/18 14:54,507
12/11/18 14:54,506
12/11/18 14:54,506
12/11/18 14:54,505
12/11/18 14:54,505
12/11/18 14:54,507
12/11/18 14:54,509
12/11/18 14:54,506
12/11/18 14:54,531
12/11/18 14:54,517
12/11/18 14:54,501
12/11/18 14:54,495
12/11/18 14:54,504
12/11/18 14:54,513
12/11/18 14:54,513
12/11/18 14:54,507
12/11/18 14:54,499
12/11/18 14:54,498
12/11/18 14:54,497
12/11/18 14:54,500
12/11/18 14:54,500
12/11/18 14:54,503
12/11/18 14:54,505
12/11/18 14:54,504
12/11/18 14:54,506
12/11/18 14:54,506
12/11/18 14:54,506
12/11/18 14:54,505
12/11/18 14:54,509
12/11/18 14:54,507
12/11/18 14:54,507
12/11/18 14:54,509
12/11/18 14:54,509
12/11/18 14:54,509
12/11/18 14:54,510
12/11/18 14:54,507
12/11/18 14:54,508
12/11/18 14:54,509
12/11/18 14:54,508
12/11/18 14:54,508
12/11/18 14:54,510
12/11/18 14:54,508
12/11/18 14:54,508
12/11/18 14:54,508
12/11/18 14:54,508
12/11/18 14:54,509
12/11/18 14:54,509
12/11/18 14:54,507
12/11/18 14:54,508
12/11/18 14:54,506
12/11/18 14:54,506
12/11/18 14:54,505
12/11/18 14:54,506
12/11/18 14:54,506
12/11/18 14:54,507
12/11/18 14:54,507
12/11/18 14:54,506
12/11/18 14:54,506
12/11/18 14:54,506
12/11/18 14:54,505
12/11/18 14:54,508
12/11/18 14:54,535
12/11/18 14:54,511
12/11/18 14:54,496
12/11/18 14:54,499
12/11/18 14:54,506
12/11/18 14:54,511
12/11/18 14:54,507
12/11/18 14:54,502
12/11/18 14:54,499
12/11/18 14:54,500
12/11/18 14:54,501
12/11/18 14:54,503
12/11/18 14:54,503
12/11/18 14:54,503
12/11/18 14:54,505
12/11/18 14:54,505
12/11/18 14:54,506
12/11/18 14:54,506
12/11/18 14:54,506
12/11/18 14:54,506
12/11/18 14:54,509
12/11/18 14:54,507
12/11/18 14:54,509
12/11/18 14:54,510
12/11/18 14:54,508
12/11/18 14:54,509
12/11/18 14:54,508
12/11/18 14:54,508
12/11/18 14:54,509
12/11/18 14:54,507
12/11/18 14:54,509
12/11/18 14:54,507
12/11/18 14:54,508
12/11/18 14:54,507
12/11/18 14:54,508
12/11/18 14:54,508
12/11/18 14:54,508
12/11/18 14:54,507
12/11/18 14:54,507
12/11/18 14:54,508
12/11/18 14:54,507
12/11/18 14:54,507
12/11/18 14:54,506
12/11/18 14:54,506
12/11/18 14:54,506
12/11/18 14:54,506
12/11/18 14:54,506
12/11/18 14:54,506
12/11/18 14:54,507
12/11/18 14:54,505
12/11/18 14:54,507
12/11/18 14:54,511
12/11/18 14:54,521
12/11/18 14:54,507
12/11/18 14:54,496
12/11/18 14:54,501
12/11/18 14:54,506
12/11/18 14:54,513
12/11/18 14:54,511
12/11/18 14:54,502
12/11/18 14:54,498
12/11/18 14:54,498
12/11/18 14:54,499
12/11/18 14:54,502
12/11/18 14:54,504
12/11/18 14:54,507
12/11/18 14:54,506
12/11/18 14:54,506
12/11/18 14:54,508
12/11/18 14:54,507
12/11/18 14:54,507
12/11/18 14:54,506
12/11/18 14:54,507
12/11/18 14:54,508
12/11/18 14:54,507
12/11/18 14:54,508
12/11/18 14:54,508
12/11/18 14:54,507
12/11/18 14:54,506
12/11/18 14:54,510
12/11/18 14:54,507
12/11/18 14:54,507
12/11/18 14:54,509
12/11/18 14:54,508
12/11/18 14:54,507
12/11/18 14:54,508
12/11/18 14:54,508
12/11/18 14:54,508
12/11/18 14:54,506
12/11/18 14:54,507
12/11/18 14:54,507
12/11/18 14:54,507
12/11/18 14:54,507
12/11/18 14:54,507
12/11/18 14:54,508
12/11/18 14:54,505
12/11/18 14:54,507
12/11/18 14:54,506
12/11/18 14:54,505
12/11/18 14:54,506
12/11/18 14:54,505
12/11/18 14:54,507
12/11/18 14:54,507
12/11/18 14:54,507
12/11/18 14:54,505
12/11/18 15:03,509
12/11/18 15:03,509
12/11/18 15:03,507
12/11/18 15:03,507
12/11/18 15:03,508
12/11/18 15:03,509
12/11/18 15:03,508
12/11/18 15:03,508
12/11/18 15:03,507
12/11/18 15:03,508
12/11/18 15:03,506
12/11/18 15:03,506
12/11/18 15:03,507
12/11/18 15:03,507
12/11/18 15:03,506
12/11/18 15:03,507
12/11/18 15:03,508
12/11/18 15:03,505
12/11/18 15:03,505
12/11/18 15:03,508
12/11/18 15:03,507
12/11/18 15:03,506
12/11/18 15:03,558
12/11/18 15:03,513
12/11/18 15:03,497
12/11/18 15:03,496
12/11/18 15:03,509
12/11/18 15:03,507
12/11/18 15:03,511
12/11/18 15:03,506
12/11/18 15:03,501
12/11/18 15:03,501
12/11/18 15:03,501
12/11/18 15:03,501
12/11/18 15:03,503
12/11/18 15:03,502
12/11/18 15:03,503
12/11/18 15:03,505
12/11/18 15:03,505
12/11/18 15:03,507
12/11/18 15:03,506
12/11/18 15:03,507
12/11/18 15:03,508
12/11/18 15:03,507
12/11/18 15:03,506
12/11/18 15:03,508
12/11/18 15:03,508
12/11/18 15:03,510
12/11/18 15:03,508
12/11/18 15:03,508
12/11/18 15:03,508
12/11/18 15:03,508
12/11/18 15:03,508
12/11/18 15:03,509
12/11/18 15:03,510
12/11/18 15:03,508
12/11/18 15:03,508
12/11/18 15:03,509
12/11/18 15:03,506
12/11/18 15:03,508
12/11/18 15:03,508
12/11/18 15:03,507
12/11/18 15:03,505
12/11/18 15:03,507
12/11/18 15:03,507
12/11/18 15:03,507
12/11/18 15:03,506
12/11/18 15:03,506
12/11/18 15:03,506
12/11/18 15:03,507
12/11/18 15:03,507
12/11/18 15:03,506
12/11/18 15:03,507
12/11/18 15:03,506
12/11/18 15:03,508
12/11/18 15:03,528
12/11/18 15:03,507
12/11/18 15:03,493
12/11/18 15:03,498
12/11/18 15:03,506
12/11/18 15:03,510
12/11/18 15:03,509
12/11/18 15:03,504
12/11/18 15:03,500
12/11/18 15:03,501
12/11/18 15:03,499
12/11/18 15:03,502
12/11/18 15:03,502
12/11/18 15:03,502
12/11/18 15:03,506
12/11/18 15:03,505
12/11/18 15:03,505
12/11/18 15:03,507
12/11/18 15:03,508
12/11/18 15:03,508
12/11/18 15:03,508
12/11/18 15:03,507
12/11/18 15:03,509
12/11/18 15:03,509
12/11/18 15:03,508
12/11/18 15:03,507
12/11/18 15:03,509
12/11/18 15:03,508
12/11/18 15:03,508
12/11/18 15:03,508
12/11/18 15:03,507
12/11/18 15:03,507
12/11/18 15:03,507
12/11/18 15:03,508
12/11/18 15:03,508
12/11/18 15:03,506
12/11/18 15:03,508
12/11/18 15:03,508
12/11/18 15:03,507
12/11/18 15:03,508
12/11/18 15:03,506
12/11/18 15:03,507
12/11/18 15:03,504
12/11/18 15:03,504
12/11/18 15:03,506
12/11/18 15:03,506
12/11/18 15:03,506
12/11/18 15:03,506
12/11/18 15:03,505
12/11/18 15:03,508
12/11/18 15:03,507
12/11/18 15:03,534
12/11/18 15:03,508
12/11/18 15:03,495
12/11/18 15:03,498
12/11/18 15:03,508
12/11/18 15:03,511
12/11/18 15:03,508
12/11/18 15:03,505
12/11/18 15:03,500
12/11/18 15:03,501
12/11/18 15:03,501
12/11/18 15:03,501
12/11/18 15:03,500
12/11/18 15:03,502
12/11/18 15:03,501
12/11/18 15:03,504
12/11/18 15:03,504
12/11/18 15:03,505
12/11/18 15:03,507
12/11/18 15:03,508
12/11/18 15:03,508
12/11/18 15:03,509
12/11/18 15:03,509
12/11/18 15:03,509
12/11/18 15:03,510
12/11/18 15:03,509
12/11/18 15:03,509
12/11/18 15:03,510
12/11/18 15:03,507
12/11/18 15:03,510
12/11/18 15:03,511
12/11/18 15:03,507
12/11/18 15:03,507
12/11/18 15:03,509
12/11/18 15:03,507
12/11/18 15:03,507
12/11/18 15:03,508
12/11/18 15:03,509
12/11/18 15:03,509
12/11/18 15:03,507
12/11/18 15:03,506
12/11/18 15:03,506
12/11/18 15:03,505
12/11/18 15:03,507
12/11/18 15:03,506
12/11/18 15:03,506
12/11/18 15:03,506
12/11/18 15:03,507
12/11/18 15:03,506
12/11/18 15:03,505
12/11/18 15:03,510
12/11/18 15:03,522
12/11/18 15:03,507
12/11/18 15:03,495
12/11/18 15:03,503
12/11/18 15:03,514
12/11/18 15:03,521
12/11/18 15:03,510
12/11/18 15:03,499
12/11/18 15:03,494
12/11/18 15:03,496
12/11/18 15:03,497
12/11/18 15:03,499
12/11/18 15:03,501
12/11/18 15:03,503
12/11/18 15:03,503
12/11/18 15:03,505
12/11/18 15:03,503
12/11/18 15:03,505
12/11/18 15:03,507
12/11/18 15:03,509
12/11/18 15:03,508
12/11/18 15:03,509
12/11/18 15:03,509
12/11/18 15:03,509
12/11/18 15:03,507
12/11/18 15:03,508
12/11/18 15:03,508
12/11/18 15:03,509
12/11/18 15:03,509
12/11/18 15:03,509
12/11/18 15:03,508
12/11/18 15:03,508
12/11/18 15:03,508
12/11/18 15:03,508
12/11/18 15:03,507
12/11/18 15:03,507
12/11/18 15:03,507
12/11/18 15:03,506
12/11/18 15:03,507
12/11/18 15:03,508
12/11/18 15:03,507
12/11/18 15:03,505
12/11/18 15:03,507
12/11/18 15:03,508
12/11/18 15:03,506
12/11/18 15:03,504
12/11/18 15:03,507
12/11/18 15:03,506
12/11/18 15:03,507
12/11/18 15:03,506
12/11/18 15:03,507
12/11/18 15:03,506
12/11/18 15:03,507
12/11/18 15:03,549
12/11/18 15:03,512
12/11/18 15:03,495
12/11/18 15:03,498
12/11/18 15:03,505
12/11/18 15:03,513
12/11/18 15:03,512
12/11/18 15:03,504
12/11/18 15:03,501
12/11/18 15:03,499
12/11/18 15:03,499
12/11/18 15:03,501
12/11/18 15:03,501
12/11/18 15:03,504
12/11/18 15:03,502
12/11/18 15:03,504
12/11/18 15:03,503
12/11/18 15:03,506
12/11/18 15:03,507
12/11/18 15:03,506
12/11/18 15:03,507
12/11/18 15:03,508
12/11/18 15:03,509
12/11/18 15:03,508
12/11/18 15:03,509
12/11/18 15:03,510
12/11/18 15:03,509
12/11/18 15:03,507
12/11/18 15:03,510
12/11/18 15:03,508
12/11/18 15:03,509
12/11/18 15:03,510
12/11/18 15:03,507
12/11/18 15:03,507
12/11/18 15:03,507
12/11/18 15:03,508
12/11/18 15:03,507
12/11/18 15:03,509
12/11/18 15:03,509
12/11/18 15:03,507
12/11/18 15:03,507
12/11/18 15:03,506
12/11/18 15:03,507
12/11/18 15:03,506
12/11/18 15:03,505
12/11/18 15:03,506
12/11/18 15:03,508
12/11/18 15:03,505
12/11/18 15:03,505
12/11/18 15:03,505
12/11/18 15:03,506
12/11/18 15:03,508
12/11/18 15:03,509
12/11/18 15:03,528
12/11/18 15:03,507
12/11/18 15:03,495
12/11/18 15:03,499
12/11/18 15:03,509
12/11/18 15:03,512
12/11/18 15:03,508
12/11/18 15:03,505
12/11/18 15:03,502
12/11/18 15:03,499
12/11/18 15:03,499
12/11/18 15:03,501
12/11/18 15:03,501
12/11/18 15:03,503
12/11/18 15:03,503
12/11/18 15:03,504
12/11/18 15:03,503
12/11/18 15:03,506
12/11/18 15:03,507
12/11/18 15:03,507
12/11/18 15:03,509
12/11/18 15:03,509
12/11/18 15:03,508
12/11/18 15:03,510
12/11/18 15:03,509
12/11/18 15:03,507
12/11/18 15:03,508
12/11/18 15:03,509
12/11/18 15:03,507
12/11/18 15:03,509
12/11/18 15:03,509
12/11/18 15:03,508
12/11/18 15:03,507
12/11/18 15:03,508
12/11/18 15:03,509
12/11/18 15:03,506
12/11/18 15:03,509
12/11/18 15:03,508
12/11/18 15:03,506
12/11/18 15:03,508
12/11/18 15:03,507
12/11/18 15:03,505
12/11/18 15:03,506
12/11/18 15:03,505
12/11/18 15:03,505
12/11/18 15:03,507
12/11/18 15:03,506
12/11/18 15:03,506
12/11/18 15:03,506
12/11/18 15:03,505
12/11/18 15:03,513
12/11/18 15:03,521
12/11/18 15:03,506
12/11/18 15:03,496
12/11/18 15:03,503
12/11/18 15:03,514
12/11/18 15:03,522
12/11/18 15:03,509
12/11/18 15:03,499
12/11/18 15:03,494
12/11/18 15:03,495
12/11/18 15:03,496
12/11/18 15:03,499
12/11/18 15:03,501
12/11/18 15:03,502
12/11/18 15:03,503
12/11/18 15:03,504
12/11/18 15:03,504
12/11/18 15:03,506
12/11/18 15:03,507
12/11/18 15:03,507
12/11/18 15:03,507
12/11/18 15:03,508
12/11/18 15:03,509
12/11/18 15:03,510
12/11/18 15:03,510
12/11/18 15:03,509
12/11/18 15:03,509
12/11/18 15:03,508
12/11/18 15:03,508
12/11/18 15:03,508
12/11/18 15:03,508
12/11/18 15:03,508
12/11/18 15:03,507
12/11/18 15:03,509
12/11/18 15:03,509
12/11/18 15:03,507
12/11/18 15:03,508
12/11/18 15:03,508
12/11/18 15:03,508
12/11/18 15:03,507
12/11/18 15:03,506
12/11/18 15:03,507
12/11/18 15:03,507
12/11/18 15:03,508
12/11/18 15:03,506
12/11/18 15:03,507
12/11/18 15:03,505
12/11/18 15:03,507
12/11/18 15:03,507
12/11/18 15:03,505
12/11/18 15:03,506
12/11/18 15:03,508
12/11/18 15:03,505
12/11/18 15:03,554
12/11/18 15:03,514
12/11/18 15:03,498
12/11/18 15:03,496
12/11/18 15:03,503
12/11/18 15:03,514
12/11/18 15:03,512
12/11/18 15:03,505
12/11/18 15:03,502
12/11/18 15:03,498
12/11/18 15:03,501
12/11/18 15:03,498
12/11/18 15:03,501
12/11/18 15:03,501
12/11/18 15:03,503
12/11/18 15:03,503
12/11/18 15:03,503
12/11/18 15:03,506
12/11/18 15:03,507
12/11/18 15:03,507
12/11/18 15:03,508
12/11/18 15:03,508
12/11/18 15:03,508
12/11/18 15:03,511
12/11/18 15:03,508
12/11/18 15:03,506
12/11/18 15:03,508
12/11/18 15:03,509
12/11/18 15:03,510
12/11/18 15:03,509
12/11/18 15:03,507
12/11/18 15:03,510
12/11/18 15:03,508
12/11/18 15:03,509
12/11/18 15:03,508
12/11/18 15:03,508
12/11/18 15:03,507
12/11/18 15:03,509
12/11/18 15:03,507
12/11/18 15:03,507
12/11/18 15:03,505
12/11/18 15:03,505
12/11/18 15:03,507
12/11/18 15:03,507
12/11/18 15:03,507
12/11/18 15:03,506
12/11/18 15:03,508
12/11/18 15:03,507
12/11/18 15:03,507
12/11/18 15:03,506
12/11/18 15:03,506
12/11/18 15:03,506
12/11/18 15:03,538
12/11/18 15:03,511
12/11/18 15:03,497
12/11/18 15:03,500
12/11/18 15:03,497
12/11/18 15:03,506
12/11/18 15:03,510
12/11/18 15:03,508
12/11/18 15:03,507
12/11/18 15:03,506
12/11/18 15:03,503
12/11/18 15:03,502
12/11/18 15:03,501
12/11/18 15:03,502
12/11/18 15:03,503
12/11/18 15:03,504
12/11/18 15:03,503
12/11/18 15:03,504
12/11/18 15:03,507
12/11/18 15:03,506
12/11/18 15:03,507
12/11/18 15:03,508
12/11/18 15:03,509
12/11/18 15:03,509
12/11/18 15:03,508
12/11/18 15:03,511
12/11/18 15:03,509
12/11/18 15:03,507
12/11/18 15:03,509
12/11/18 15:03,509
12/11/18 15:03,507
12/11/18 15:03,508
12/11/18 15:03,509
12/11/18 15:03,506
12/11/18 15:03,506
12/11/18 15:03,509
12/11/18 15:03,508
12/11/18 15:03,508
12/11/18 15:03,509
12/11/18 15:03,509
12/11/18 15:03,506
12/11/18 15:03,507
12/11/18 15:03,506
12/11/18 15:03,505
12/11/18 15:03,505
12/11/18 15:03,506
12/11/18 15:03,507
12/11/18 15:03,505
12/11/18 15:03,507
12/11/18 15:03,506
12/11/18 15:03,506
12/11/18 15:03,555
12/11/18 15:03,513
12/11/18 15:03,499
12/11/18 15:03,497
12/11/18 15:03,506
12/11/18 15:03,514
12/11/18 15:03,515
12/11/18 15:03,507
12/11/18 15:03,496
12/11/18 15:03,495
12/11/18 15:03,494
12/11/18 15:03,497
12/11/18 15:03,500
12/11/18 15:03,502
12/11/18 15:03,504
12/11/18 15:03,506
12/11/18 15:03,507
12/11/18 15:03,508
12/11/18 15:03,509
12/11/18 15:03,510
12/11/18 15:03,509
12/11/18 15:03,510
12/11/18 15:03,509
12/11/18 15:03,509
12/11/18 15:03,509
12/11/18 15:03,510
12/11/18 15:03,508
12/11/18 15:03,511
12/11/18 15:03,507
12/11/18 15:03,508
12/11/18 15:03,508
12/11/18 15:03,508
12/11/18 15:03,509
12/11/18 15:03,507
12/11/18 15:03,508
12/11/18 15:03,508
12/11/18 15:03,507
12/11/18 15:03,506
12/11/18 15:03,507
12/11/18 15:03,508
12/11/18 15:03,506
12/11/18 15:03,506
12/11/18 15:03,507
12/11/18 15:03,506
12/11/18 15:03,505
12/11/18 15:03,506
12/11/18 15:03,508
12/11/18 15:03,507
12/11/18 15:03,506
12/11/18 15:03,505
12/11/18 15:03,508
12/11/18 15:03,506
12/11/18 15:03,506
12/11/18 15:03,561
12/11/18 15:03,515
12/11/18 15:03,497
12/11/18 15:03,496
12/11/18 15:03,503
12/11/18 15:03,515
12/11/18 15:03,511
12/11/18 15:03,504
12/11/18 15:03,500
12/11/18 15:03,498
12/11/18 15:03,500
12/11/18 15:03,501
12/11/18 15:03,502
12/11/18 15:03,503
12/11/18 15:03,503
12/11/18 15:03,502
12/11/18 15:03,504
12/11/18 15:03,505
12/11/18 15:03,506
12/11/18 15:03,506
12/11/18 15:03,507
12/11/18 15:03,509
12/11/18 15:03,509
12/11/18 15:03,508
12/11/18 15:03,509
12/11/18 15:03,508
12/11/18 15:03,508
12/11/18 15:03,508
12/11/18 15:03,507
12/11/18 15:03,508
12/11/18 15:03,509
12/11/18 15:03,509
12/11/18 15:03,508
12/11/18 15:03,508
12/11/18 15:03,507
12/11/18 15:03,508
12/11/18 15:03,508
12/11/18 15:03,508
12/11/18 15:03,508
12/11/18 15:03,507
12/11/18 15:03,507
12/11/18 15:03,507
12/11/18 15:03,508
12/11/18 15:03,506
12/11/18 15:03,505
12/11/18 15:03,505
12/11/18 15:03,506
12/11/18 15:03,505
12/11/18 15:03,506
12/11/18 15:03,507
12/11/18 15:03,506
12/11/18 15:03,506
12/11/18 15:03,506
12/11/18 15:03,560
12/11/18 15:03,515
12/11/18 15:03,497
12/11/18 15:03,497
12/11/18 15:12,498
12/11/18 15:12,498
12/11/18 15:12,498
12/11/18 15:12,507
12/11/18 15:12,511
12/11/18 15:12,511
12/11/18 15:12,506
12/11/18 15:12,504
12/11/18 15:12,501
12/11/18 15:12,500
12/11/18 15:12,502
12/11/18 15:12,499
12/11/18 15:12,500
12/11/18 15:12,501
12/11/18 15:12,504
12/11/18 15:12,504
12/11/18 15:12,506
12/11/18 15:12,506
12/11/18 15:12,507
12/11/18 15:12,509
12/11/18 15:12,508
12/11/18 15:12,510
12/11/18 15:12,509
12/11/18 15:12,509
12/11/18 15:12,509
12/11/18 15:12,510
12/11/18 15:12,510
12/11/18 15:12,510
12/11/18 15:12,508
12/11/18 15:12,509
12/11/18 15:12,508
12/11/18 15:12,509
12/11/18 15:12,508
12/11/18 15:12,507
12/11/18 15:12,508
12/11/18 15:12,507
12/11/18 15:12,510
12/11/18 15:12,508
12/11/18 15:12,508
12/11/18 15:12,506
12/11/18 15:12,507
12/11/18 15:12,507
12/11/18 15:12,507
12/11/18 15:12,506
12/11/18 15:12,505
12/11/18 15:12,506
12/11/18 15:12,505
12/11/18 15:12,507
12/11/18 15:12,506
12/11/18 15:12,506
12/11/18 15:12,547
12/11/18 15:12,510
12/11/18 15:12,498
12/11/18 15:12,499
12/11/18 15:12,507
12/11/18 15:12,513
12/11/18 15:12,507
12/11/18 15:12,504
12/11/18 15:12,500
12/11/18 15:12,500
12/11/18 15:12,500
12/11/18 15:12,501
12/11/18 15:12,500
12/11/18 15:12,504
12/11/18 15:12,504
12/11/18 15:12,503
12/11/18 15:12,505
12/11/18 15:12,508
12/11/18 15:12,507
12/11/18 15:12,507
12/11/18 15:12,508
12/11/18 15:12,508
12/11/18 15:12,509
12/11/18 15:12,510
12/11/18 15:12,509
12/11/18 15:12,508
12/11/18 15:12,509
12/11/18 15:12,510
12/11/18 15:12,509
12/11/18 15:12,508
12/11/18 15:12,508
12/11/18 15:12,509
12/11/18 15:12,507
12/11/18 15:12,508
12/11/18 15:12,508
12/11/18 15:12,508
12/11/18 15:12,508
12/11/18 15:12,509
12/11/18 15:12,506
12/11/18 15:12,507
12/11/18 15:12,506
12/11/18 15:12,507
12/11/18 15:12,508
12/11/18 15:12,507
12/11/18 15:12,506
12/11/18 15:12,506
12/11/18 15:12,506
12/11/18 15:12,505
12/11/18 15:12,505
12/11/18 15:12,505
12/11/18 15:12,507
12/11/18 15:12,529
12/11/18 15:12,508
12/11/18 15:12,499
12/11/18 15:12,501
12/11/18 15:12,505
12/11/18 15:12,510
12/11/18 15:12,510
12/11/18 15:12,501
12/11/18 15:12,498
12/11/18 15:12,499
12/11/18 15:12,498
12/11/18 15:12,502
12/11/18 15:12,504
12/11/18 15:12,503
12/11/18 15:12,505
12/11/18 15:12,507
12/11/18 15:12,508
12/11/18 15:12,507
12/11/18 15:12,507
12/11/18 15:12,506
12/11/18 15:12,507
12/11/18 15:12,507
12/11/18 15:12,508
12/11/18 15:12,507
12/11/18 15:12,508
12/11/18 15:12,508
12/11/18 15:12,509
12/11/18 15:12,508
12/11/18 15:12,507
12/11/18 15:12,508
12/11/18 15:12,508
12/11/18 15:12,510
12/11/18 15:12,509
12/11/18 15:12,509
12/11/18 15:12,508
12/11/18 15:12,508
12/11/18 15:12,508
12/11/18 15:12,505
12/11/18 15:12,508
12/11/18 15:12,506
12/11/18 15:12,506
12/11/18 15:12,508
12/11/18 15:12,507
12/11/18 15:12,507
12/11/18 15:12,507
12/11/18 15:12,506
12/11/18 15:12,506
12/11/18 15:12,506
12/11/18 15:12,506
12/11/18 15:12,506
12/11/18 15:12,508
12/11/18 15:12,506
12/11/18 15:12,509
12/11/18 15:12,507
12/11/18 15:12,506
12/11/18 15:12,543
12/11/18 15:12,513
12/11/18 15:12,500
12/11/18 15:12,495
12/11/18 15:12,499
12/11/18 15:12,510
12/11/18 15:12,512
12/11/18 15:12,509
12/11/18 15:12,504
12/11/18 15:12,503
12/11/18 15:12,500
12/11/18 15:12,499
12/11/18 15:12,500
12/11/18 15:12,501
12/11/18 15:12,502
12/11/18 15:12,503
12/11/18 15:12,503
12/11/18 15:12,502
12/11/18 15:12,506
12/11/18 15:12,506
12/11/18 15:12,508
12/11/18 15:12,507
12/11/18 15:12,507
12/11/18 15:12,509
12/11/18 15:12,509
12/11/18 15:12,511
12/11/18 15:12,509
12/11/18 15:12,509
12/11/18 15:12,508
12/11/18 15:12,506
12/11/18 15:12,508
12/11/18 15:12,508
12/11/18 15:12,509
12/11/18 15:12,509
12/11/18 15:12,508
12/11/18 15:12,509
12/11/18 15:12,509
12/11/18 15:12,508
12/11/18 15:12,507
12/11/18 15:12,507
12/11/18 15:12,506
12/11/18 15:12,505
12/11/18 15:12,506
12/11/18 15:12,506
12/11/18 15:12,507
12/11/18 15:12,506
12/11/18 15:12,507
12/11/18 15:12,506
12/11/18 15:12,505
12/11/18 15:12,507
12/11/18 15:12,507
12/11/18 15:12,556
12/11/18 15:12,512
12/11/18 15:12,496
12/11/18 15:12,498
12/11/18 15:12,504
12/11/18 15:12,514
12/11/18 15:12,514
12/11/18 15:12,505
12/11/18 15:12,500
12/11/18 15:12,498
12/11/18 15:12,498
12/11/18 15:12,498
12/11/18 15:12,500
12/11/18 15:12,502
12/11/18 15:12,505
12/11/18 15:12,505
12/11/18 15:12,506
12/11/18 15:12,506
12/11/18 15:12,509
12/11/18 15:12,507
12/11/18 15:12,507
12/11/18 15:12,509
12/11/18 15:12,508
12/11/18 15:12,510
12/11/18 15:12,509
12/11/18 15:12,509
12/11/18 15:12,508
12/11/18 15:12,508
12/11/18 15:12,509
12/11/18 15:12,508
12/11/18 15:12,509
12/11/18 15:12,508
12/11/18 15:12,510
12/11/18 15:12,506
12/11/18 15:12,507
12/11/18 15:12,507
12/11/18 15:12,507
12/11/18 15:12,507
12/11/18 15:12,507
12/11/18 15:12,509
12/11/18 15:12,506
12/11/18 15:12,506
12/11/18 15:12,506
12/11/18 15:12,505
12/11/18 15:12,506
12/11/18 15:12,505
12/11/18 15:12,507
12/11/18 15:12,505
12/11/18 15:12,507
12/11/18 15:12,507
12/11/18 15:12,505
12/11/18 15:12,508
12/11/18 15:12,515
12/11/18 15:12,517
12/11/18 15:12,504
12/11/18 15:12,496
12/11/18 15:12,501
12/11/18 15:12,507
12/11/18 15:12,518
12/11/18 15:12,508
12/11/18 15:12,502
12/11/18 15:12,498
12/11/18 15:12,498
12/11/18 15:12,500
12/11/18 15:12,500
12/11/18 15:12,503
12/11/18 15:12,505
12/11/18 15:12,503
12/11/18 15:12,503
12/11/18 15:12,507
12/11/18 15:12,506
12/11/18 15:12,506
12/11/18 15:12,507
12/11/18 15:12,509
12/11/18 15:12,510
12/11/18 15:12,509
12/11/18 15:12,508
12/11/18 15:12,509
12/11/18 15:12,507
12/11/18 15:12,507
12/11/18 15:12,509
12/11/18 15:12,506
12/11/18 15:12,510
12/11/18 15:12,508
12/11/18 15:12,508
12/11/18 15:12,508
12/11/18 15:12,507
12/11/18 15:12,508
12/11/18 15:12,507
12/11/18 15:12,509
12/11/18 15:12,509
12/11/18 15:12,507
12/11/18 15:12,506
12/11/18 15:12,506
12/11/18 15:12,506
12/11/18 15:12,507
12/11/18 15:12,505
12/11/18 15:12,507
12/11/18 15:12,504
12/11/18 15:12,508
12/11/18 15:12,506
12/11/18 15:12,506
12/11/18 15:12,508
12/11/18 15:12,507
12/11/18 15:12,510
12/11/18 15:12,527
12/11/18 15:12,508
12/11/18 15:12,495
12/11/18 15:12,500
12/11/18 15:12,507
12/11/18 15:12,500
12/11/18 15:12,504
12/11/18 15:12,504
12/11/18 15:12,504
12/11/18 15:12,502
12/11/18 15:12,505
12/11/18 15:12,503
12/11/18 15:12,503
12/11/18 15:12,503
12/11/18 15:12,505
12/11/18 15:12,505
12/11/18 15:12,506
12/11/18 15:12,505
12/11/18 15:12,506
12/11/18 15:12,506
12/11/18 15:12,508
12/11/18 15:12,508
12/11/18 15:12,509
12/11/18 15:12,507
12/11/18 15:12,509
12/11/18 15:12,508
12/11/18 15:12,507
12/11/18 15:12,508
12/11/18 15:12,508
12/11/18 15:12,508
12/11/18 15:12,509
12/11/18 15:12,507
12/11/18 15:12,508
12/11/18 15:12,509
12/11/18 15:12,506
12/11/18 15:12,508
12/11/18 15:12,507
12/11/18 15:12,508
12/11/18 15:12,507
12/11/18 15:12,506
12/11/18 15:12,507
12/11/18 15:12,507
12/11/18 15:12,505
12/11/18 15:12,506
12/11/18 15:12,506
12/11/18 15:12,505
12/11/18 15:12,507
12/11/18 15:12,505
12/11/18 15:12,505
12/11/18 15:12,506
12/11/18 15:12,510
12/11/18 15:12,529
12/11/18 15:12,508
12/11/18 15:12,498
12/11/18 15:12,500
12/11/18 15:12,506
12/11/18 15:12,512
12/11/18 15:12,510
12/11/18 15:12,504
12/11/18 15:12,501
12/11/18 15:12,499
12/11/18 15:12,500
12/11/18 15:12,502
12/11/18 15:12,501
12/11/18 15:12,503
12/11/18 15:12,501
12/11/18 15:12,503
12/11/18 15:12,504
12/11/18 15:12,506
12/11/18 15:12,508
12/11/18 15:12,507
12/11/18 15:12,506
12/11/18 15:12,508
12/11/18 15:12,508
12/11/18 15:12,509
12/11/18 15:12,508
12/11/18 15:12,509
12/11/18 15:12,509
12/11/18 15:12,509
12/11/18 15:12,507
12/11/18 15:12,508
12/11/18 15:12,509
12/11/18 15:12,508
12/11/18 15:12,507
12/11/18 15:12,508
12/11/18 15:12,508
12/11/18 15:12,507
12/11/18 15:12,508
12/11/18 15:12,508
12/11/18 15:12,508
12/11/18 15:12,506
12/11/18 15:12,508
12/11/18 15:12,506
12/11/18 15:12,507
12/11/18 15:12,506
12/11/18 15:12,506
12/11/18 15:12,507
12/11/18 15:12,506
12/11/18 15:12,507
12/11/18 15:12,506
12/11/18 15:12,506
12/11/18 15:12,505
12/11/18 15:12,506
12/11/18 15:12,506
12/11/18 15:12,548
12/11/18 15:12,515
12/11/18 15:12,498
12/11/18 15:12,499
12/11/18 15:12,507
12/11/18 15:12,508
12/11/18 15:12,511
12/11/18 15:12,505
12/11/18 15:12,502
12/11/18 15:12,500
12/11/18 15:12,501
12/11/18 15:12,501
12/11/18 15:12,500
12/11/18 15:12,503
12/11/18 15:12,502
12/11/18 15:12,504
12/11/18 15:12,506
12/11/18 15:12,506
12/11/18 15:12,506
12/11/18 15:12,509
12/11/18 15:12,507
12/11/18 15:12,506
12/11/18 15:12,509
12/11/18 15:12,509
12/11/18 15:12,509
12/11/18 15:12,507
12/11/18 15:12,509
12/11/18 15:12,509
12/11/18 15:12,510
12/11/18 15:12,507
12/11/18 15:12,508
12/11/18 15:12,508
12/11/18 15:12,508
12/11/18 15:12,508
12/11/18 15:12,509
12/11/18 15:12,509
12/11/18 15:12,507
12/11/18 15:12,507
12/11/18 15:12,508
12/11/18 15:12,507
12/11/18 15:12,508
12/11/18 15:12,505
12/11/18 15:12,505
12/11/18 15:12,505
12/11/18 15:12,507
12/11/18 15:12,506
12/11/18 15:12,507
12/11/18 15:12,507
12/11/18 15:12,506
12/11/18 15:12,506
12/11/18 15:12,506
12/11/18 15:12,506
12/11/18 15:12,544
12/11/18 15:12,514
12/11/18 15:12,500
12/11/18 15:12,496
12/11/18 15:12,502
12/11/18 15:12,519
12/11/18 15:12,518
12/11/18 15:12,508
12/11/18 15:12,503
12/11/18 15:12,498
12/11/18 15:12,498
12/11/18 15:12,497
12/11/18 15:12,499
12/11/18 15:12,499
12/11/18 15:12,501
12/11/18 15:12,501
12/11/18 15:12,503
12/11/18 15:12,504
12/11/18 15:12,504
12/11/18 15:12,505
12/11/18 15:12,507
12/11/18 15:12,509
12/11/18 15:12,510
12/11/18 15:12,509
12/11/18 15:12,509
12/11/18 15:12,512
12/11/18 15:12,508
12/11/18 15:12,510
12/11/18 15:12,508
12/11/18 15:12,509
12/11/18 15:12,509
12/11/18 15:12,509
12/11/18 15:12,509
12/11/18 15:12,508
12/11/18 15:12,507
12/11/18 15:12,507
12/11/18 15:12,507
12/11/18 15:12,508
12/11/18 15:12,508
12/11/18 15:12,508
12/11/18 15:12,506
12/11/18 15:12,507
12/11/18 15:12,506
12/11/18 15:12,506
12/11/18 15:12,507
12/11/18 15:12,506
12/11/18 15:12,505
12/11/18 15:12,505
12/11/18 15:12,505
12/11/18 15:12,506
12/11/18 15:12,507
12/11/18 15:12,507
12/11/18 15:12,517
12/11/18 15:12,519
12/11/18 15:12,505
12/11/18 15:12,497
12/11/18 15:12,503
12/11/18 15:12,514
12/11/18 15:12,520
12/11/18 15:12,511
12/11/18 15:12,498
12/11/18 15:12,494
12/11/18 15:12,493
12/11/18 15:12,496
12/11/18 15:12,499
12/11/18 15:12,500
12/11/18 15:12,503
12/11/18 15:12,505
12/11/18 15:12,505
12/11/18 15:12,506
12/11/18 15:12,508
12/11/18 15:12,507
12/11/18 15:12,509
12/11/18 15:12,508
12/11/18 15:12,509
12/11/18 15:12,510
12/11/18 15:12,508
12/11/18 15:12,509
12/11/18 15:12,509
12/11/18 15:12,508
12/11/18 15:12,508
12/11/18 15:12,509
12/11/18 15:12,508
12/11/18 15:12,508
12/11/18 15:12,509
12/11/18 15:12,509
12/11/18 15:12,508
12/11/18 15:12,508
12/11/18 15:12,508
12/11/18 15:12,507
12/11/18 15:12,507
12/11/18 15:12,507
12/11/18 15:12,508
12/11/18 15:12,506
12/11/18 15:12,506
12/11/18 15:12,505
12/11/18 15:12,506
12/11/18 15:12,505
12/11/18 15:12,505
12/11/18 15:12,506
12/11/18 15:12,506
12/11/18 15:12,507
12/11/18 15:12,507
12/11/18 15:12,509
12/11/18 15:12,506
12/11/18 15:12,528
12/11/18 15:12,518
12/11/18 15:12,502
12/11/18 15:12,495
12/11/18 15:12,501
12/11/18 15:12,514
12/11/18 15:12,515
12/11/18 15:12,506
12/11/18 15:12,502
12/11/18 15:12,498
12/11/18 15:12,499
12/11/18 15:12,500
12/11/18 15:12,500
12/11/18 15:12,502
12/11/18 15:12,501
12/11/18 15:12,504
12/11/18 15:12,505
12/11/18 15:12,506
12/11/18 15:12,505
12/11/18 15:12,505
12/11/18 15:12,507
12/11/18 15:12,509
12/11/18 15:12,507
12/11/18 15:12,509
12/11/18 15:12,512
12/11/18 15:12,508
12/11/18 15:12,508
12/11/18 15:21,503
12/11/18 15:21,502
12/11/18 15:21,504
12/11/18 15:21,507
12/11/18 15:21,505
12/11/18 15:21,505
12/11/18 15:21,508
12/11/18 15:21,511
12/11/18 15:21,511
12/11/18 15:21,511
12/11/18 15:21,511
12/11/18 15:21,510
12/11/18 15:21,510
12/11/18 15:21,510
12/11/18 15:21,509
12/11/18 15:21,507
12/11/18 15:21,504
12/11/18 15:21,505
12/11/18 15:21,509
12/11/18 15:21,511
12/11/18 15:21,510
12/11/18 15:21,510
12/11/18 15:21,511
12/11/18 15:21,510
12/11/18 15:21,508
12/11/18 15:21,507
12/11/18 15:21,506
12/11/18 15:21,505
12/11/18 15:21,506
12/11/18 15:21,506
12/11/18 15:21,506
12/11/18 15:21,506
12/11/18 15:21,506
12/11/18 15:21,505
12/11/18 15:21,506
12/11/18 15:21,505
12/11/18 15:21,507
12/11/18 15:21,526
12/11/18 15:21,503
12/11/18 15:21,493
12/11/18 15:21,501
12/11/18 15:21,512
12/11/18 15:21,513
12/11/18 15:21,511
12/11/18 15:21,505
12/11/18 15:21,502
12/11/18 15:21,502
12/11/18 15:21,501
12/11/18 15:21,502
12/11/18 15:21,502
12/11/18 15:21,503
12/11/18 15:21,503
12/11/18 15:21,503
12/11/18 15:21,505
12/11/18 15:21,507
12/11/18 15:21,499
12/11/18 15:21,504
12/11/18 15:21,506
12/11/18 15:21,510
12/11/18 15:21,511
12/11/18 15:21,510
12/11/18 15:21,511
12/11/18 15:21,508
12/11/18 15:21,509
12/11/18 15:21,510
12/11/18 15:21,509
12/11/18 15:21,508
12/11/18 15:21,508
12/11/18 15:21,508
12/11/18 15:21,508
12/11/18 15:21,506
12/11/18 15:21,504
12/11/18 15:21,503
12/11/18 15:21,509
12/11/18 15:21,509
12/11/18 15:21,510
12/11/18 15:21,509
12/11/18 15:21,505
12/11/18 15:21,503
12/11/18 15:21,508
12/11/18 15:21,508
12/11/18 15:21,506
12/11/18 15:21,508
12/11/18 15:21,507
12/11/18 15:21,507
12/11/18 15:21,507
12/11/18 15:21,506
12/11/18 15:21,506
12/11/18 15:21,508
12/11/18 15:21,507
12/11/18 15:21,536
12/11/18 15:21,512
12/11/18 15:21,501
12/11/18 15:21,497
12/11/18 15:21,497
12/11/18 15:21,506
12/11/18 15:21,511
12/11/18 15:21,511
12/11/18 15:21,507
12/11/18 15:21,500
12/11/18 15:21,502
12/11/18 15:21,502
12/11/18 15:21,503
12/11/18 15:21,503
12/11/18 15:21,502
12/11/18 15:21,503
12/11/18 15:21,504
12/11/18 15:21,506
12/11/18 15:21,505
12/11/18 15:21,505
12/11/18 15:21,507
12/11/18 15:21,504
12/11/18 15:21,506
12/11/18 15:21,508
12/11/18 15:21,509
12/11/18 15:21,510
12/11/18 15:21,505
12/11/18 15:21,509
12/11/18 15:21,510
12/11/18 15:21,511
12/11/18 15:21,511
12/11/18 15:21,510
12/11/18 15:21,508
12/11/18 15:21,509
12/11/18 15:21,509
12/11/18 15:21,510
12/11/18 15:21,507
12/11/18 15:21,505
12/11/18 15:21,507
12/11/18 15:21,508
12/11/18 15:21,507
12/11/18 15:21,504
12/11/18 15:21,507
12/11/18 15:21,507
12/11/18 15:21,507
12/11/18 15:21,507
12/11/18 15:21,507
12/11/18 15:21,506
12/11/18 15:21,507
12/11/18 15:21,507
12/11/18 15:21,514
12/11/18 15:21,511
12/11/18 15:21,505
12/11/18 15:21,498
12/11/18 15:21,505
12/11/18 15:21,505
12/11/18 15:21,511
12/11/18 15:21,506
12/11/18 15:21,503
12/11/18 15:21,499
12/11/18 15:21,500
12/11/18 15:21,501
12/11/18 15:21,502
12/11/18 15:21,502
12/11/18 15:21,502
12/11/18 15:21,504
12/11/18 15:21,505
12/11/18 15:21,504
12/11/18 15:21,506
12/11/18 15:21,499
12/11/18 15:21,505
12/11/18 15:21,509
12/11/18 15:21,510
12/11/18 15:21,512
12/11/18 15:21,512
12/11/18 15:21,511
12/11/18 15:21,510
12/11/18 15:21,510
12/11/18 15:21,509
12/11/18 15:21,510
12/11/18 15:21,509
12/11/18 15:21,508
12/11/18 15:21,508
12/11/18 15:21,507
12/11/18 15:21,509
12/11/18 15:21,506
12/11/18 15:21,509
12/11/18 15:21,507
12/11/18 15:21,507
12/11/18 15:21,507
12/11/18 15:21,503
12/11/18 15:21,506
12/11/18 15:21,506
12/11/18 15:21,507
12/11/18 15:21,507
12/11/18 15:21,505
12/11/18 15:21,506
12/11/18 15:21,505
12/11/18 15:21,505
12/11/18 15:21,505
12/11/18 15:21,505
12/11/18 15:21,507
12/11/18 15:21,507
12/11/18 15:21,563
12/11/18 15:21,514
12/11/18 15:21,495
12/11/18 15:21,498
12/11/18 15:21,504
12/11/18 15:21,518
12/11/18 15:21,513
12/11/18 15:21,505
12/11/18 15:21,503
12/11/18 15:21,501
12/11/18 15:21,501
12/11/18 15:21,500
12/11/18 15:21,500
12/11/18 15:21,500
12/11/18 15:21,502
12/11/18 15:21,503
12/11/18 15:21,503
12/11/18 15:21,504
12/11/18 15:21,504
12/11/18 15:21,506
12/11/18 15:21,507
12/11/18 15:21,505
12/11/18 15:21,501
12/11/18 15:21,508
12/11/18 15:21,511
12/11/18 15:21,512
12/11/18 15:21,513
12/11/18 15:21,511
12/11/18 15:21,510
12/11/18 15:21,509
12/11/18 15:21,510
12/11/18 15:21,512
12/11/18 15:21,508
12/11/18 15:21,507
12/11/18 15:21,506
12/11/18 15:21,506
12/11/18 15:21,506
12/11/18 15:21,508
12/11/18 15:21,510
12/11/18 15:21,509
12/11/18 15:21,507
12/11/18 15:21,507
12/11/18 15:21,505
12/11/18 15:21,504
12/11/18 15:21,506
12/11/18 15:21,505
12/11/18 15:21,506
12/11/18 15:21,506
12/11/18 15:21,508
12/11/18 15:21,506
12/11/18 15:21,503
12/11/18 15:21,507
12/11/18 15:21,562
12/11/18 15:21,514
12/11/18 15:21,499
12/11/18 15:21,500
12/11/18 15:21,504
12/11/18 15:21,510
12/11/18 15:21,507
12/11/18 15:21,506
12/11/18 15:21,503
12/11/18 15:21,503
12/11/18 15:21,501
12/11/18 15:21,501
12/11/18 15:21,501
12/11/18 15:21,502
12/11/18 15:21,501
12/11/18 15:21,502
12/11/18 15:21,504
12/11/18 15:21,503
12/11/18 15:21,505
12/11/18 15:21,503
12/11/18 15:21,504
12/11/18 15:21,505
12/11/18 15:21,509
12/11/18 15:21,511
12/11/18 15:21,511
12/11/18 15:21,511
12/11/18 15:21,510
12/11/18 15:21,511
12/11/18 15:21,511
12/11/18 15:21,511
12/11/18 15:21,509
12/11/18 15:21,509
12/11/18 15:21,508
12/11/18 15:21,508
12/11/18 15:21,507
12/11/18 15:21,508
12/11/18 15:21,507
12/11/18 15:21,508
12/11/18 15:21,507
12/11/18 15:21,507
12/11/18 15:21,506
12/11/18 15:21,505
12/11/18 15:21,504
12/11/18 15:21,508
12/11/18 15:21,503
12/11/18 15:21,505
12/11/18 15:21,507
12/11/18 15:21,507
12/11/18 15:21,509
12/11/18 15:21,508
12/11/18 15:21,507
12/11/18 15:21,510
12/11/18 15:21,521
12/11/18 15:21,506
12/11/18 15:21,494
12/11/18 15:21,505
12/11/18 15:21,505
12/11/18 15:21,513
12/11/18 15:21,508
12/11/18 15:21,505
12/11/18 15:21,502
12/11/18 15:21,503
12/11/18 15:21,501
12/11/18 15:21,502
12/11/18 15:21,498
12/11/18 15:21,499
12/11/18 15:21,503
12/11/18 15:21,506
12/11/18 15:21,506
12/11/18 15:21,506
12/11/18 15:21,506
12/11/18 15:21,508
12/11/18 15:21,506
12/11/18 15:21,510
12/11/18 15:21,509
12/11/18 15:21,508
12/11/18 15:21,510
12/11/18 15:21,509
12/11/18 15:21,509
12/11/18 15:21,508
12/11/18 15:21,508
12/11/18 15:21,509
12/11/18 15:21,506
12/11/18 15:21,506
12/11/18 15:21,508
12/11/18 15:21,508
12/11/18 15:21,508
12/11/18 15:21,511
12/11/18 15:21,509
12/11/18 15:21,509
12/11/18 15:21,505
12/11/18 15:21,504
12/11/18 15:21,507
12/11/18 15:21,507
12/11/18 15:21,508
12/11/18 15:21,507
12/11/18 15:21,509
12/11/18 15:21,506
12/11/18 15:21,507
12/11/18 15:21,505
12/11/18 15:21,507
12/11/18 15:21,507
12/11/18 15:21,507
12/11/18 15:21,509
12/11/18 15:21,525
12/11/18 15:21,507
12/11/18 15:21,494
12/11/18 15:21,498
12/11/18 15:21,517
12/11/18 15:21,512
12/11/18 15:21,507
12/11/18 15:21,502
12/11/18 15:21,501
12/11/18 15:21,499
12/11/18 15:21,498
12/11/18 15:21,496
12/11/18 15:21,498
12/11/18 15:21,502
12/11/18 15:21,504
12/11/18 15:21,502
12/11/18 15:21,502
12/11/18 15:21,505
12/11/18 15:21,508
12/11/18 15:21,509
12/11/18 15:21,509
12/11/18 15:21,510
12/11/18 15:21,509
12/11/18 15:21,509
12/11/18 15:21,508
12/11/18 15:21,510
12/11/18 15:21,510
12/11/18 15:21,509
12/11/18 15:21,509
12/11/18 15:21,507
12/11/18 15:21,508
12/11/18 15:21,511
12/11/18 15:21,509
12/11/18 15:21,506
12/11/18 15:21,506
12/11/18 15:21,508
12/11/18 15:21,509
12/11/18 15:21,504
12/11/18 15:21,506
12/11/18 15:21,508
12/11/18 15:21,508
12/11/18 15:21,507
12/11/18 15:21,508
12/11/18 15:21,507
12/11/18 15:21,507
12/11/18 15:21,507
12/11/18 15:21,505
12/11/18 15:21,507
12/11/18 15:21,506
12/11/18 15:21,507
12/11/18 15:21,506
12/11/18 15:21,555
12/11/18 15:21,510
12/11/18 15:21,494
12/11/18 15:21,499
12/11/18 15:21,505
12/11/18 15:21,515
12/11/18 15:21,514
12/11/18 15:21,505
12/11/18 15:21,499
12/11/18 15:21,499
12/11/18 15:21,499
12/11/18 15:21,500
12/11/18 15:21,499
12/11/18 15:21,499
12/11/18 15:21,497
12/11/18 15:21,502
12/11/18 15:21,506
12/11/18 15:21,509
12/11/18 15:21,510
12/11/18 15:21,508
12/11/18 15:21,509
12/11/18 15:21,509
12/11/18 15:21,510
12/11/18 15:21,509
12/11/18 15:21,510
12/11/18 15:21,509
12/11/18 15:21,509
12/11/18 15:21,509
12/11/18 15:21,509
12/11/18 15:21,509
12/11/18 15:21,508
12/11/18 15:21,508
12/11/18 15:21,507
12/11/18 15:21,503
12/11/18 15:21,506
12/11/18 15:21,507
12/11/18 15:21,508
12/11/18 15:21,509
12/11/18 15:21,510
12/11/18 15:21,507
12/11/18 15:21,509
12/11/18 15:21,502
12/11/18 15:21,504
12/11/18 15:21,505
12/11/18 15:21,507
12/11/18 15:21,507
12/11/18 15:21,507
12/11/18 15:21,507
12/11/18 15:21,506
12/11/18 15:21,507
12/11/18 15:21,507
12/11/18 15:21,509
12/11/18 15:21,558
12/11/18 15:21,507
12/11/18 15:21,497
12/11/18 15:21,499
12/11/18 15:21,506
12/11/18 15:21,511
12/11/18 15:21,512
12/11/18 15:21,506
12/11/18 15:21,504
12/11/18 15:21,501
12/11/18 15:21,497
12/11/18 15:21,500
12/11/18 15:21,503
12/11/18 15:21,504
12/11/18 15:21,504
12/11/18 15:21,504
12/11/18 15:21,506
12/11/18 15:21,505
12/11/18 15:21,507
12/11/18 15:21,506
12/11/18 15:21,507
12/11/18 15:21,504
12/11/18 15:21,505
12/11/18 15:21,508
12/11/18 15:21,511
12/11/18 15:21,509
12/11/18 15:21,510
12/11/18 15:21,508
12/11/18 15:21,509
12/11/18 15:21,508
12/11/18 15:21,507
12/11/18 15:21,509
12/11/18 15:21,508
12/11/18 15:21,507
12/11/18 15:21,506
12/11/18 15:21,509
12/11/18 15:21,509
12/11/18 15:21,506
12/11/18 15:21,508
12/11/18 15:21,507
12/11/18 15:21,506
12/11/18 15:21,506
12/11/18 15:21,505
12/11/18 15:21,503
12/11/18 15:21,503
12/11/18 15:21,505
12/11/18 15:21,508
12/11/18 15:21,509
12/11/18 15:21,509
12/11/18 15:21,509
12/11/18 15:21,507
12/11/18 15:21,506
12/11/18 15:21,507
12/11/18 15:21,506
12/11/18 15:21,509
12/11/18 15:21,533
12/11/18 15:21,509
12/11/18 15:21,497
12/11/18 15:21,502
12/11/18 15:21,500
12/11/18 15:21,503
12/11/18 15:21,507
12/11/18 15:21,505
12/11/18 15:21,503
12/11/18 15:21,504
12/11/18 15:21,500
12/11/18 15:21,505
12/11/18 15:21,504
12/11/18 15:21,506
12/11/18 15:21,506
12/11/18 15:21,505
12/11/18 15:21,504
12/11/18 15:21,506
12/11/18 15:21,506
12/11/18 15:21,506
12/11/18 15:21,506
12/11/18 15:21,507
12/11/18 15:21,509
12/11/18 15:21,508
12/11/18 15:21,506
12/11/18 15:21,506
12/11/18 15:21,506
12/11/18 15:21,511
12/11/18 15:21,510
12/11/18 15:21,511
12/11/18 15:21,510
12/11/18 15:21,510
12/11/18 15:21,508
12/11/18 15:21,508
12/11/18 15:21,508
12/11/18 15:21,508
12/11/18 15:21,509
12/11/18 15:21,507
12/11/18 15:21,507
12/11/18 15:21,502
12/11/18 15:21,503
12/11/18 15:21,506
12/11/18 15:21,509
12/11/18 15:21,507
12/11/18 15:21,508
12/11/18 15:21,507
12/11/18 15:21,508
12/11/18 15:21,508
12/11/18 15:21,507
12/11/18 15:21,506
12/11/18 15:21,505
12/11/18 15:21,556
12/11/18 15:21,508
12/11/18 15:21,496
12/11/18 15:21,498
12/11/18 15:21,500
12/11/18 15:21,515
12/11/18 15:21,511
12/11/18 15:21,507
12/11/18 15:21,503
12/11/18 15:21,503
12/11/18 15:21,502
12/11/18 15:21,502
12/11/18 15:21,500
12/11/18 15:21,502
12/11/18 15:21,502
12/11/18 15:21,500
12/11/18 15:21,503
12/11/18 15:21,504
12/11/18 15:21,503
12/11/18 15:21,505
12/11/18 15:21,508
12/11/18 15:21,508
12/11/18 15:21,508
12/11/18 15:21,509
12/11/18 15:21,508
12/11/18 15:21,504
12/11/18 15:21,510
12/11/18 15:21,510
12/11/18 15:21,510
12/11/18 15:21,510
12/11/18 15:21,510
12/11/18 15:21,509
12/11/18 15:21,509
12/11/18 15:21,508
12/11/18 15:21,508
12/11/18 15:21,506
12/11/18 15:21,510
12/11/18 15:21,507
12/11/18 15:21,508
12/11/18 15:21,506
12/11/18 15:21,502
12/11/18 15:21,505
12/11/18 15:30,515
12/11/18 15:30,513
12/11/18 15:30,500
12/11/18 15:30,496
12/11/18 15:30,499
12/11/18 15:30,499
12/11/18 15:30,500
12/11/18 15:30,501
12/11/18 15:30,502
12/11/18 15:30,503
12/11/18 15:30,504
12/11/18 15:30,504
12/11/18 15:30,506
12/11/18 15:30,505
12/11/18 15:30,508
12/11/18 15:30,508
12/11/18 15:30,508
12/11/18 15:30,510
12/11/18 15:30,510
12/11/18 15:30,508
12/11/18 15:30,507
12/11/18 15:30,509
12/11/18 15:30,505
12/11/18 15:30,507
12/11/18 15:30,510
12/11/18 15:30,510
12/11/18 15:30,511
12/11/18 15:30,512
12/11/18 15:30,510
12/11/18 15:30,508
12/11/18 15:30,508
12/11/18 15:30,510
12/11/18 15:30,508
12/11/18 15:30,507
12/11/18 15:30,505
12/11/18 15:30,507
12/11/18 15:30,506
12/11/18 15:30,506
12/11/18 15:30,508
12/11/18 15:30,506
12/11/18 15:30,506
12/11/18 15:30,502
12/11/18 15:30,502
12/11/18 15:30,506
12/11/18 15:30,507
12/11/18 15:30,508
12/11/18 15:30,509
12/11/18 15:30,548
12/11/18 15:30,512
12/11/18 15:30,500
12/11/18 15:30,500
12/11/18 15:30,508
12/11/18 15:30,518
12/11/18 15:30,513
12/11/18 15:30,503
12/11/18 15:30,497
12/11/18 15:30,498
12/11/18 15:30,497
12/11/18 15:30,498
12/11/18 15:30,500
12/11/18 15:30,498
12/11/18 15:30,493
12/11/18 15:30,501
12/11/18 15:30,506
12/11/18 15:30,506
12/11/18 15:30,508
12/11/18 15:30,510
12/11/18 15:30,510
12/11/18 15:30,509
12/11/18 15:30,513
12/11/18 15:30,509
12/11/18 15:30,507
12/11/18 15:30,509
12/11/18 15:30,507
12/11/18 15:30,507
12/11/18 15:30,508
12/11/18 15:30,509
12/11/18 15:30,510
12/11/18 15:30,510
12/11/18 15:30,510
12/11/18 15:30,509
12/11/18 15:30,509
12/11/18 15:30,508
12/11/18 15:30,506
12/11/18 15:30,506
12/11/18 15:30,506
12/11/18 15:30,510
12/11/18 15:30,508
12/11/18 15:30,506
12/11/18 15:30,505
12/11/18 15:30,504
12/11/18 15:30,506
12/11/18 15:30,507
12/11/18 15:30,507
12/11/18 15:30,506
12/11/18 15:30,508
12/11/18 15:30,506
12/11/18 15:30,506
12/11/18 15:30,557
12/11/18 15:30,509
12/11/18 15:30,498
12/11/18 15:30,499
12/11/18 15:30,505
12/11/18 15:30,506
12/11/18 15:30,510
12/11/18 15:30,511
12/11/18 15:30,499
12/11/18 15:30,493
12/11/18 15:30,497
12/11/18 15:30,502
12/11/18 15:30,503
12/11/18 15:30,504
12/11/18 15:30,505
12/11/18 15:30,508
12/11/18 15:30,508
12/11/18 15:30,507
12/11/18 15:30,508
12/11/18 15:30,507
12/11/18 15:30,508
12/11/18 15:30,506
12/11/18 15:30,508
12/11/18 15:30,508
12/11/18 15:30,508
12/11/18 15:30,510
12/11/18 15:30,508
12/11/18 15:30,508
12/11/18 15:30,510
12/11/18 15:30,508
12/11/18 15:30,505
12/11/18 15:30,508
12/11/18 15:30,508
12/11/18 15:30,509
12/11/18 15:30,508
12/11/18 15:30,505
12/11/18 15:30,507
12/11/18 15:30,508
12/11/18 15:30,509
12/11/18 15:30,510
12/11/18 15:30,508
12/11/18 15:30,507
12/11/18 15:30,506
12/11/18 15:30,503
12/11/18 15:30,506
12/11/18 15:30,508
12/11/18 15:30,509
12/11/18 15:30,508
12/11/18 15:30,508
12/11/18 15:30,506
12/11/18 15:30,505
12/11/18 15:30,507
12/11/18 15:30,508
12/11/18 15:30,507
12/11/18 15:30,522
12/11/18 15:30,507
12/11/18 15:30,495
12/11/18 15:30,497
12/11/18 15:30,506
12/11/18 15:30,510
12/11/18 15:30,510
12/11/18 15:30,504
12/11/18 15:30,500
12/11/18 15:30,503
12/11/18 15:30,503
12/11/18 15:30,504
12/11/18 15:30,503
12/11/18 15:30,504
12/11/18 15:30,504
12/11/18 15:30,503
12/11/18 15:30,504
12/11/18 15:30,503
12/11/18 15:30,507
12/11/18 15:30,506
12/11/18 15:30,506
12/11/18 15:30,507
12/11/18 15:30,510
12/11/18 15:30,507
12/11/18 15:30,509
12/11/18 15:30,507
12/11/18 15:30,508
12/11/18 15:30,509
12/11/18 15:30,508
12/11/18 15:30,508
12/11/18 15:30,509
12/11/18 15:30,508
12/11/18 15:30,500
12/11/18 15:30,505
12/11/18 15:30,510
12/11/18 15:30,509
12/11/18 15:30,511
12/11/18 15:30,513
12/11/18 15:30,510
12/11/18 15:30,510
12/11/18 15:30,508
12/11/18 15:30,507
12/11/18 15:30,505
12/11/18 15:30,506
12/11/18 15:30,507
12/11/18 15:30,506
12/11/18 15:30,505
12/11/18 15:30,504
12/11/18 15:30,500
12/11/18 15:30,501
12/11/18 15:30,508
12/11/18 15:30,531
12/11/18 15:30,510
12/11/18 15:30,499
12/11/18 15:30,502
12/11/18 15:30,515
12/11/18 15:30,525
12/11/18 15:30,512
12/11/18 15:30,502
12/11/18 15:30,497
12/11/18 15:30,497
12/11/18 15:30,498
12/11/18 15:30,497
12/11/18 15:30,501
12/11/18 15:30,499
12/11/18 15:30,503
12/11/18 15:30,503
12/11/18 15:30,502
12/11/18 15:30,505
12/11/18 15:30,507
12/11/18 15:30,506
12/11/18 15:30,500
12/11/18 15:30,509
12/11/18 15:30,510
12/11/18 15:30,509
12/11/18 15:30,513
12/11/18 15:30,511
12/11/18 15:30,511
12/11/18 15:30,511
12/11/18 15:30,510
12/11/18 15:30,509
12/11/18 15:30,509
12/11/18 15:30,507
12/11/18 15:30,507
12/11/18 15:30,504
12/11/18 15:30,506
12/11/18 15:30,511
12/11/18 15:30,511
12/11/18 15:30,510
12/11/18 15:30,509
12/11/18 15:30,508
12/11/18 15:30,507
12/11/18 15:30,506
12/11/18 15:30,507
12/11/18 15:30,507
12/11/18 15:30,505
12/11/18 15:30,504
12/11/18 15:30,503
12/11/18 15:30,499
12/11/18 15:30,504
12/11/18 15:30,507
12/11/18 15:30,540
12/11/18 15:30,513
12/11/18 15:30,502
12/11/18 15:30,499
12/11/18 15:30,504
12/11/18 15:30,514
12/11/18 15:30,514
12/11/18 15:30,509
12/11/18 15:30,503
12/11/18 15:30,501
12/11/18 15:30,500
12/11/18 15:30,501
12/11/18 15:30,502
12/11/18 15:30,500
12/11/18 15:30,502
12/11/18 15:30,502
12/11/18 15:30,502
12/11/18 15:30,503
12/11/18 15:30,501
12/11/18 15:30,505
12/11/18 15:30,507
12/11/18 15:30,508
12/11/18 15:30,507
12/11/18 15:30,506
12/11/18 15:30,509
12/11/18 15:30,511
12/11/18 15:30,510
12/11/18 15:30,511
12/11/18 15:30,510
12/11/18 15:30,509
12/11/18 15:30,509
12/11/18 15:30,509
12/11/18 15:30,508
12/11/18 15:30,509
12/11/18 15:30,506
12/11/18 15:30,506
12/11/18 15:30,508
12/11/18 15:30,509
12/11/18 15:30,510
12/11/18 15:30,508
12/11/18 15:30,506
12/11/18 15:30,507
12/11/18 15:30,503
12/11/18 15:30,506
12/11/18 15:30,506
12/11/18 15:30,507
12/11/18 15:30,506
12/11/18 15:30,506
12/11/18 15:30,503
12/11/18 15:30,506
12/11/18 15:30,507
12/11/18 15:30,508
12/11/18 15:30,561
12/11/18 15:30,512
12/11/18 15:30,500
12/11/18 15:30,497
12/11/18 15:30,509
12/11/18 15:30,512
12/11/18 15:30,510
12/11/18 15:30,507
12/11/18 15:30,502
12/11/18 15:30,502
12/11/18 15:30,502
12/11/18 15:30,500
12/11/18 15:30,499
12/11/18 15:30,499
12/11/18 15:30,502
12/11/18 15:30,502
12/11/18 15:30,503
12/11/18 15:30,502
12/11/18 15:30,503
12/11/18 15:30,499
12/11/18 15:30,506
12/11/18 15:30,509
12/11/18 15:30,510
12/11/18 15:30,510
12/11/18 15:30,512
12/11/18 15:30,511
12/11/18 15:30,513
12/11/18 15:30,511
12/11/18 15:30,509
12/11/18 15:30,509
12/11/18 15:30,508
12/11/18 15:30,507
12/11/18 15:30,510
12/11/18 15:30,507
12/11/18 15:30,509
12/11/18 15:30,508
12/11/18 15:30,504
12/11/18 15:30,502
12/11/18 15:30,507
12/11/18 15:30,510
12/11/18 15:30,510
12/11/18 15:30,509
12/11/18 15:30,508
12/11/18 15:30,506
12/11/18 15:30,507
12/11/18 15:30,508
12/11/18 15:30,505
12/11/18 15:30,507
12/11/18 15:30,506
12/11/18 15:30,506
12/11/18 15:30,509
12/11/18 15:30,517
12/11/18 15:30,507
12/11/18 15:30,497
12/11/18 15:30,502
12/11/18 15:30,506
12/11/18 15:30,512
12/11/18 15:30,509
12/11/18 15:30,502
12/11/18 15:30,500
12/11/18 15:30,501
12/11/18 15:30,499
12/11/18 15:30,501
12/11/18 15:30,503
12/11/18 15:30,504
12/11/18 15:30,503
12/11/18 15:30,503
12/11/18 15:30,504
12/11/18 15:30,505
12/11/18 15:30,507
12/11/18 15:30,507
12/11/18 15:30,507
12/11/18 15:30,508
12/11/18 15:30,507
12/11/18 15:30,509
12/11/18 15:30,510
12/11/18 15:30,505
12/11/18 15:30,504
12/11/18 15:30,506
12/11/18 15:30,511
12/11/18 15:30,511
12/11/18 15:30,510
12/11/18 15:30,511
12/11/18 15:30,509
12/11/18 15:30,510
12/11/18 15:30,509
12/11/18 15:30,509
12/11/18 15:30,509
12/11/18 15:30,507
12/11/18 15:30,508
12/11/18 15:30,505
12/11/18 15:30,507
12/11/18 15:30,503
12/11/18 15:30,505
12/11/18 15:30,505
12/11/18 15:30,507
12/11/18 15:30,503
12/11/18 15:30,504
12/11/18 15:30,506
12/11/18 15:30,506
12/11/18 15:30,507
12/11/18 15:30,507
12/11/18 15:30,509
12/11/18 15:30,523
12/11/18 15:30,511
12/11/18 15:30,504
12/11/18 15:30,497
12/11/18 15:30,503
12/11/18 15:30,510
12/11/18 15:30,505
12/11/18 15:30,505
12/11/18 15:30,502
12/11/18 15:30,501
12/11/18 15:30,506
12/11/18 15:30,504
12/11/18 15:30,503
12/11/18 15:30,504
12/11/18 15:30,504
12/11/18 15:30,505
12/11/18 15:30,505
12/11/18 15:30,505
12/11/18 15:30,506
12/11/18 15:30,502
12/11/18 15:30,502
12/11/18 15:30,508
12/11/18 15:30,508
12/11/18 15:30,509
12/11/18 15:30,510
12/11/18 15:30,510
12/11/18 15:30,505
12/11/18 15:30,506
12/11/18 15:30,509
12/11/18 15:30,510
12/11/18 15:30,509
12/11/18 15:30,509
12/11/18 15:30,507
12/11/18 15:30,509
12/11/18 15:30,510
12/11/18 15:30,509
12/11/18 15:30,508
12/11/18 15:30,508
12/11/18 15:30,503
12/11/18 15:30,506
12/11/18 15:30,507
12/11/18 15:30,503
12/11/18 15:30,507
12/11/18 15:30,510
12/11/18 15:30,509
12/11/18 15:30,505
12/11/18 15:30,508
12/11/18 15:30,506
12/11/18 15:30,507
12/11/18 15:30,507
12/11/18 15:30,507
12/11/18 15:30,508
12/11/18 15:30,506
12/11/18 15:30,503
12/11/18 15:30,552
12/11/18 15:30,509
12/11/18 15:30,499
12/11/18 15:30,501
12/11/18 15:30,509
12/11/18 15:30,500
12/11/18 15:30,514
12/11/18 15:30,508
12/11/18 15:30,499
12/11/18 15:30,502
12/11/18 15:30,503
12/11/18 15:30,503
12/11/18 15:30,504
12/11/18 15:30,505
12/11/18 15:30,504
12/11/18 15:30,505
12/11/18 15:30,507
12/11/18 15:30,505
12/11/18 15:30,507
12/11/18 15:30,507
12/11/18 15:30,507
12/11/18 15:30,506
12/11/18 15:30,505
12/11/18 15:30,508
12/11/18 15:30,506
12/11/18 15:30,506
12/11/18 15:30,511
12/11/18 15:30,510
12/11/18 15:30,512
12/11/18 15:30,509
12/11/18 15:30,511
12/11/18 15:30,508
12/11/18 15:30,508
12/11/18 15:30,509
12/11/18 15:30,509
12/11/18 15:30,507
12/11/18 15:30,510
12/11/18 15:30,508
12/11/18 15:30,507
12/11/18 15:30,506
12/11/18 15:30,508
12/11/18 15:30,506
12/11/18 15:30,506
12/11/18 15:30,502
12/11/18 15:30,503
12/11/18 15:30,508
12/11/18 15:30,506
12/11/18 15:30,506
12/11/18 15:30,506
12/11/18 15:30,506
12/11/18 15:30,504
12/11/18 15:30,558
12/11/18 15:30,508
12/11/18 15:30,495
12/11/18 15:30,500
12/11/18 15:30,509
12/11/18 15:30,510
12/11/18 15:30,511
12/11/18 15:30,508
12/11/18 15:30,504
12/11/18 15:30,502
12/11/18 15:30,504
12/11/18 15:30,502
12/11/18 15:30,502
12/11/18 15:30,494
12/11/18 15:30,502
12/11/18 15:30,505
12/11/18 15:30,507
12/11/18 15:30,506
12/11/18 15:30,508
12/11/18 15:30,509
12/11/18 15:30,509
12/11/18 15:30,508
12/11/18 15:30,506
12/11/18 15:30,509
12/11/18 15:30,509
12/11/18 15:30,509
12/11/18 15:30,508
12/11/18 15:30,508
12/11/18 15:30,508
12/11/18 15:30,508
12/11/18 15:30,506
12/11/18 15:30,507
12/11/18 15:30,508
12/11/18 15:30,508
12/11/18 15:30,506
12/11/18 15:30,506
12/11/18 15:30,509
12/11/18 15:30,508
12/11/18 15:30,509
12/11/18 15:30,507
12/11/18 15:30,506
12/11/18 15:30,504
12/11/18 15:30,506
12/11/18 15:30,507
12/11/18 15:30,506
12/11/18 15:30,508
12/11/18 15:30,506
12/11/18 15:30,507
12/11/18 15:30,507
12/11/18 15:30,506
12/11/18 15:30,505
12/11/18 15:30,503
12/11/18 15:30,545
12/11/18 15:30,507
12/11/18 15:30,494
12/11/18 15:30,502
12/11/18 15:30,515
12/11/18 15:30,517
12/11/18 15:30,510
12/11/18 15:30,504
12/11/18 15:30,502
12/11/18 15:30,499
12/11/18 15:30,499
12/11/18 15:30,499
12/11/18 15:30,500
12/11/18 15:30,500
12/11/18 15:30,502
12/11/18 15:30,498
12/11/18 15:30,500
12/11/18 15:30,501
12/11/18 15:30,507
12/11/18 15:30,508
12/11/18 15:30,509
12/11/18 15:30,510
12/11/18 15:30,511
12/11/18 15:30,510
12/11/18 15:30,510
12/11/18 15:30,511
12/11/18 15:30,510
12/11/18 15:30,509
12/11/18 15:30,509
12/11/18 15:30,509
12/11/18 15:30,507
12/11/18 15:30,505
12/11/18 15:30,502
12/11/18 15:30,507
12/11/18 15:30,510
12/11/18 15:39,505
12/11/18 15:39,505
12/11/18 15:39,505
12/11/18 15:39,504
12/11/18 15:39,505
12/11/18 15:39,505
12/11/18 15:39,502
12/11/18 15:39,504
12/11/18 15:39,505
12/11/18 15:39,509
12/11/18 15:39,510
12/11/18 15:39,509
12/11/18 15:39,510
12/11/18 15:39,509
12/11/18 15:39,509
12/11/18 15:39,509
12/11/18 15:39,504
12/11/18 15:39,506
12/11/18 15:39,509
12/11/18 15:39,508
12/11/18 15:39,506
12/11/18 15:39,509
12/11/18 15:39,510
12/11/18 15:39,509
12/11/18 15:39,510
12/11/18 15:39,510
12/11/18 15:39,510
12/11/18 15:39,509
12/11/18 15:39,507
12/11/18 15:39,506
12/11/18 15:39,506
12/11/18 15:39,506
12/11/18 15:39,500
12/11/18 15:39,502
12/11/18 15:39,507
12/11/18 15:39,507
12/11/18 15:39,506
12/11/18 15:39,504
12/11/18 15:39,507
12/11/18 15:39,554
12/11/18 15:39,511
12/11/18 15:39,499
12/11/18 15:39,500
12/11/18 15:39,513
12/11/18 15:39,502
12/11/18 15:39,507
12/11/18 15:39,510
12/11/18 15:39,501
12/11/18 15:39,499
12/11/18 15:39,500
12/11/18 15:39,500
12/11/18 15:39,496
12/11/18 15:39,499
12/11/18 15:39,504
12/11/18 15:39,508
12/11/18 15:39,509
12/11/18 15:39,510
12/11/18 15:39,509
12/11/18 15:39,509
12/11/18 15:39,511
12/11/18 15:39,509
12/11/18 15:39,509
12/11/18 15:39,511
12/11/18 15:39,507
12/11/18 15:39,511
12/11/18 15:39,508
12/11/18 15:39,503
12/11/18 15:39,506
12/11/18 15:39,509
12/11/18 15:39,509
12/11/18 15:39,508
12/11/18 15:39,506
12/11/18 15:39,505
12/11/18 15:39,508
12/11/18 15:39,510
12/11/18 15:39,510
12/11/18 15:39,511
12/11/18 15:39,509
12/11/18 15:39,508
12/11/18 15:39,502
12/11/18 15:39,506
12/11/18 15:39,506
12/11/18 15:39,507
12/11/18 15:39,507
12/11/18 15:39,506
12/11/18 15:39,505
12/11/18 15:39,507
12/11/18 15:39,507
12/11/18 15:39,506
12/11/18 15:39,506
12/11/18 15:39,505
12/11/18 15:39,550
12/11/18 15:39,510
12/11/18 15:39,497
12/11/18 15:39,495
12/11/18 15:39,499
12/11/18 15:39,510
12/11/18 15:39,512
12/11/18 15:39,504
12/11/18 15:39,501
12/11/18 15:39,503
12/11/18 15:39,505
12/11/18 15:39,503
12/11/18 15:39,504
12/11/18 15:39,504
12/11/18 15:39,503
12/11/18 15:39,505
12/11/18 15:39,505
12/11/18 15:39,505
12/11/18 15:39,506
12/11/18 15:39,505
12/11/18 15:39,507
12/11/18 15:39,508
12/11/18 15:39,508
12/11/18 15:39,509
12/11/18 15:39,507
12/11/18 15:39,509
12/11/18 15:39,507
12/11/18 15:39,509
12/11/18 15:39,507
12/11/18 15:39,504
12/11/18 15:39,507
12/11/18 15:39,508
12/11/18 15:39,509
12/11/18 15:39,506
12/11/18 15:39,508
12/11/18 15:39,509
12/11/18 15:39,512
12/11/18 15:39,510
12/11/18 15:39,509
12/11/18 15:39,508
12/11/18 15:39,504
12/11/18 15:39,506
12/11/18 15:39,509
12/11/18 15:39,506
12/11/18 15:39,507
12/11/18 15:39,503
12/11/18 15:39,505
12/11/18 15:39,506
12/11/18 15:39,507
12/11/18 15:39,508
12/11/18 15:39,508
12/11/18 15:39,508
12/11/18 15:39,517
12/11/18 15:39,513
12/11/18 15:39,504
12/11/18 15:39,496
12/11/18 15:39,502
12/11/18 15:39,508
12/11/18 15:39,511
12/11/18 15:39,509
12/11/18 15:39,505
12/11/18 15:39,505
12/11/18 15:39,499
12/11/18 15:39,496
12/11/18 15:39,500
12/11/18 15:39,505
12/11/18 15:39,504
12/11/18 15:39,503
12/11/18 15:39,504
12/11/18 15:39,504
12/11/18 15:39,505
12/11/18 15:39,506
12/11/18 15:39,506
12/11/18 15:39,507
12/11/18 15:39,506
12/11/18 15:39,509
12/11/18 15:39,507
12/11/18 15:39,505
12/11/18 15:39,508
12/11/18 15:39,508
12/11/18 15:39,511
12/11/18 15:39,511
12/11/18 15:39,510
12/11/18 15:39,511
12/11/18 15:39,504
12/11/18 15:39,507
12/11/18 15:39,509
12/11/18 15:39,510
12/11/18 15:39,509
12/11/18 15:39,510
12/11/18 15:39,509
12/11/18 15:39,507
12/11/18 15:39,508
12/11/18 15:39,507
12/11/18 15:39,508
12/11/18 15:39,504
12/11/18 15:39,503
12/11/18 15:39,506
12/11/18 15:39,507
12/11/18 15:39,507
12/11/18 15:39,507
12/11/18 15:39,506
12/11/18 15:39,507
12/11/18 15:39,507
12/11/18 15:39,507
12/11/18 15:39,551
12/11/18 15:39,507
12/11/18 15:39,495
12/11/18 15:39,491
12/11/18 15:39,505
12/11/18 15:39,510
12/11/18 15:39,511
12/11/18 15:39,509
12/11/18 15:39,505
12/11/18 15:39,502
12/11/18 15:39,504
12/11/18 15:39,502
12/11/18 15:39,503
12/11/18 15:39,502
12/11/18 15:39,502
12/11/18 15:39,503
12/11/18 15:39,503
12/11/18 15:39,504
12/11/18 15:39,505
12/11/18 15:39,506
12/11/18 15:39,508
12/11/18 15:39,507
12/11/18 15:39,508
12/11/18 15:39,507
12/11/18 15:39,508
12/11/18 15:39,507
12/11/18 15:39,508
12/11/18 15:39,505
12/11/18 15:39,503
12/11/18 15:39,508
12/11/18 15:39,510
12/11/18 15:39,512
12/11/18 15:39,512
12/11/18 15:39,510
12/11/18 15:39,510
12/11/18 15:39,508
12/11/18 15:39,509
12/11/18 15:39,508
12/11/18 15:39,508
12/11/18 15:39,509
12/11/18 15:39,507
12/11/18 15:39,506
12/11/18 15:39,506
12/11/18 15:39,504
12/11/18 15:39,505
12/11/18 15:39,503
12/11/18 15:39,499
12/11/18 15:39,504
12/11/18 15:39,506
12/11/18 15:39,509
12/11/18 15:39,509
12/11/18 15:39,507
12/11/18 15:39,562
12/11/18 15:39,511
12/11/18 15:39,499
12/11/18 15:39,498
12/11/18 15:39,505
12/11/18 15:39,503
12/11/18 15:39,503
12/11/18 15:39,507
12/11/18 15:39,506
12/11/18 15:39,505
12/11/18 15:39,501
12/11/18 15:39,500
12/11/18 15:39,501
12/11/18 15:39,504
12/11/18 15:39,507
12/11/18 15:39,507
12/11/18 15:39,506
12/11/18 15:39,507
12/11/18 15:39,506
12/11/18 15:39,505
12/11/18 15:39,507
12/11/18 15:39,507
12/11/18 15:39,507
12/11/18 15:39,506
12/11/18 15:39,508
12/11/18 15:39,507
12/11/18 15:39,505
12/11/18 15:39,505
12/11/18 15:39,507
12/11/18 15:39,509
12/11/18 15:39,510
12/11/18 15:39,510
12/11/18 15:39,509
12/11/18 15:39,509
12/11/18 15:39,508
12/11/18 15:39,508
12/11/18 15:39,508
12/11/18 15:39,510
12/11/18 15:39,500
12/11/18 15:39,501
12/11/18 15:39,507
12/11/18 15:39,508
12/11/18 15:39,508
12/11/18 15:39,508
12/11/18 15:39,508
12/11/18 15:39,509
12/11/18 15:39,505
12/11/18 15:39,508
12/11/18 15:39,506
12/11/18 15:39,505
12/11/18 15:39,507
12/11/18 15:39,507
12/11/18 15:39,507
12/11/18 15:39,560
12/11/18 15:39,507
12/11/18 15:39,491
12/11/18 15:39,492
12/11/18 15:39,507
12/11/18 15:39,514
12/11/18 15:39,513
12/11/18 15:39,510
12/11/18 15:39,506
12/11/18 15:39,505
12/11/18 15:39,503
12/11/18 15:39,502
12/11/18 15:39,501
12/11/18 15:39,501
