X,Bin ECG
12/13/18 14:09,506
12/13/18 14:09,506
12/13/18 14:09,505
12/13/18 14:09,507
12/13/18 14:09,507
12/13/18 14:09,506
12/13/18 14:09,508
12/13/18 14:09,507
12/13/18 14:09,508
12/13/18 14:09,507
12/13/18 14:09,508
12/13/18 14:09,507
12/13/18 14:09,507
12/13/18 14:09,509
12/13/18 14:09,506
12/13/18 14:09,498
12/13/18 14:09,522
12/13/18 14:09,513
12/13/18 14:09,510
12/13/18 14:09,508
12/13/18 14:09,509
12/13/18 14:09,507
12/13/18 14:09,502
12/13/18 14:09,501
12/13/18 14:09,500
12/13/18 14:09,503
12/13/18 14:09,503
12/13/18 14:09,505
12/13/18 14:09,506
12/13/18 14:09,505
12/13/18 14:09,508
12/13/18 14:09,509
12/13/18 14:09,507
12/13/18 14:09,510
12/13/18 14:09,512
12/13/18 14:09,513
12/13/18 14:09,508
12/13/18 14:09,510
12/13/18 14:09,511
12/13/18 14:09,510
12/13/18 14:09,513
12/13/18 14:09,509
12/13/18 14:09,511
12/13/18 14:09,509
12/13/18 14:09,508
12/13/18 14:09,509
12/13/18 14:09,509
12/13/18 14:09,509
12/13/18 14:09,507
12/13/18 14:09,507
12/13/18 14:09,509
12/13/18 14:09,507
12/13/18 14:09,508
12/13/18 14:09,508
12/13/18 14:09,509
12/13/18 14:09,508
12/13/18 14:09,508
12/13/18 14:09,507
12/13/18 14:09,506
12/13/18 14:09,506
12/13/18 14:09,507
12/13/18 14:09,508
12/13/18 14:09,508
12/13/18 14:09,509
12/13/18 14:09,507
12/13/18 14:09,508
12/13/18 14:09,509
12/13/18 14:09,519
12/13/18 14:09,509
12/13/18 14:09,509
12/13/18 14:09,508
12/13/18 14:09,504
12/13/18 14:09,502
12/13/18 14:09,503
12/13/18 14:09,505
12/13/18 14:09,505
12/13/18 14:09,501
12/13/18 14:09,505
12/13/18 14:09,506
12/13/18 14:09,507
12/13/18 14:09,505
12/13/18 14:09,507
12/13/18 14:09,507
12/13/18 14:09,508
12/13/18 14:09,510
12/13/18 14:09,510
12/13/18 14:09,510
12/13/18 14:09,510
12/13/18 14:09,511
12/13/18 14:09,511
12/13/18 14:09,510
12/13/18 14:09,508
12/13/18 14:09,511
12/13/18 14:09,512
12/13/18 14:09,509
12/13/18 14:09,509
12/13/18 14:09,509
12/13/18 14:09,509
12/13/18 14:09,509
12/13/18 14:09,508
12/13/18 14:09,507
12/13/18 14:09,508
12/13/18 14:09,507
12/13/18 14:09,508
12/13/18 14:09,507
12/13/18 14:09,507
12/13/18 14:09,507
12/13/18 14:09,509
12/13/18 14:09,506
12/13/18 14:09,509
12/13/18 14:09,508
12/13/18 14:09,506
12/13/18 14:09,510
12/13/18 14:09,507
12/13/18 14:09,510
12/13/18 14:09,507
12/13/18 14:09,508
12/13/18 14:09,509
12/13/18 14:09,507
12/13/18 14:09,502
12/13/18 14:09,523
12/13/18 14:09,515
12/13/18 14:09,512
12/13/18 14:09,509
12/13/18 14:09,506
12/13/18 14:09,505
12/13/18 14:09,504
12/13/18 14:09,502
12/13/18 14:09,502
12/13/18 14:09,504
12/13/18 14:09,503
12/13/18 14:09,504
12/13/18 14:09,504
12/13/18 14:09,507
12/13/18 14:09,509
12/13/18 14:09,506
12/13/18 14:09,509
12/13/18 14:09,508
12/13/18 14:09,509
12/13/18 14:09,512
12/13/18 14:09,511
12/13/18 14:09,510
12/13/18 14:09,512
12/13/18 14:09,510
12/13/18 14:09,513
12/13/18 14:09,509
12/13/18 14:09,508
12/13/18 14:09,509
12/13/18 14:09,509
12/13/18 14:09,508
12/13/18 14:09,509
12/13/18 14:09,509
12/13/18 14:09,509
12/13/18 14:09,507
12/13/18 14:09,508
12/13/18 14:09,507
12/13/18 14:09,508
12/13/18 14:09,508
12/13/18 14:09,508
12/13/18 14:09,509
12/13/18 14:09,505
12/13/18 14:09,507
12/13/18 14:09,509
12/13/18 14:09,507
12/13/18 14:09,507
12/13/18 14:09,506
12/13/18 14:09,508
12/13/18 14:09,507
12/13/18 14:09,507
12/13/18 14:09,508
12/13/18 14:09,506
12/13/18 14:09,501
12/13/18 14:09,520
12/13/18 14:09,511
12/13/18 14:09,511
12/13/18 14:09,508
12/13/18 14:09,509
12/13/18 14:09,505
12/13/18 14:09,501
12/13/18 14:09,502
12/13/18 14:09,501
12/13/18 14:09,504
12/13/18 14:09,503
12/13/18 14:09,504
12/13/18 14:09,507
12/13/18 14:09,506
12/13/18 14:09,509
12/13/18 14:09,509
12/13/18 14:09,509
12/13/18 14:09,510
12/13/18 14:09,509
12/13/18 14:09,511
12/13/18 14:09,510
12/13/18 14:09,510
12/13/18 14:09,511
12/13/18 14:09,509
12/13/18 14:09,511
12/13/18 14:09,510
12/13/18 14:09,510
12/13/18 14:09,511
12/13/18 14:09,509
12/13/18 14:09,507
12/13/18 14:09,508
12/13/18 14:09,508
12/13/18 14:09,507
12/13/18 14:09,508
12/13/18 14:09,509
12/13/18 14:09,509
12/13/18 14:09,508
12/13/18 14:09,507
12/13/18 14:09,505
12/13/18 14:09,508
12/13/18 14:09,507
12/13/18 14:09,508
12/13/18 14:09,508
12/13/18 14:09,507
12/13/18 14:09,507
12/13/18 14:09,508
12/13/18 14:09,507
12/13/18 14:09,509
12/13/18 14:09,507
12/13/18 14:09,509
12/13/18 14:09,509
12/13/18 14:09,515
12/13/18 14:09,514
12/13/18 14:09,509
12/13/18 14:09,511
12/13/18 14:09,508
12/13/18 14:09,506
12/13/18 14:09,505
12/13/18 14:09,502
12/13/18 14:09,502
12/13/18 14:09,503
12/13/18 14:09,503
12/13/18 14:09,504
12/13/18 14:09,505
12/13/18 14:09,506
12/13/18 14:09,507
12/13/18 14:09,509
12/13/18 14:09,508
12/13/18 14:09,509
12/13/18 14:09,510
12/13/18 14:09,510
12/13/18 14:09,509
12/13/18 14:09,510
12/13/18 14:09,509
12/13/18 14:09,512
12/13/18 14:09,510
12/13/18 14:09,511
12/13/18 14:09,509
12/13/18 14:09,509
12/13/18 14:09,510
12/13/18 14:09,508
12/13/18 14:09,509
12/13/18 14:09,509
12/13/18 14:09,509
12/13/18 14:09,510
12/13/18 14:09,508
12/13/18 14:09,508
12/13/18 14:09,507
12/13/18 14:09,508
12/13/18 14:09,507
12/13/18 14:09,507
12/13/18 14:09,508
12/13/18 14:09,507
12/13/18 14:09,508
12/13/18 14:09,508
12/13/18 14:09,507
12/13/18 14:09,507
12/13/18 14:09,507
12/13/18 14:09,509
12/13/18 14:09,508
12/13/18 14:09,508
12/13/18 14:09,509
12/13/18 14:09,509
12/13/18 14:09,505
12/13/18 14:09,522
12/13/18 14:09,515
12/13/18 14:09,512
12/13/18 14:09,508
12/13/18 14:09,507
12/13/18 14:09,503
12/13/18 14:09,502
12/13/18 14:09,502
12/13/18 14:09,503
12/13/18 14:09,501
12/13/18 14:09,506
12/13/18 14:09,506
12/13/18 14:09,507
12/13/18 14:09,506
12/13/18 14:09,510
12/13/18 14:09,508
12/13/18 14:09,507
12/13/18 14:09,510
12/13/18 14:09,509
12/13/18 14:09,510
12/13/18 14:09,510
12/13/18 14:09,510
12/13/18 14:09,512
12/13/18 14:09,508
12/13/18 14:09,511
12/13/18 14:09,508
12/13/18 14:09,510
12/13/18 14:09,511
12/13/18 14:09,508
12/13/18 14:09,509
12/13/18 14:09,508
12/13/18 14:09,510
12/13/18 14:09,509
12/13/18 14:09,508
12/13/18 14:09,509
12/13/18 14:09,507
12/13/18 14:09,507
12/13/18 14:09,506
12/13/18 14:09,507
12/13/18 14:09,509
12/13/18 14:09,507
12/13/18 14:09,506
12/13/18 14:09,508
12/13/18 14:09,506
12/13/18 14:09,507
12/13/18 14:09,506
12/13/18 14:09,507
12/13/18 14:09,509
12/13/18 14:09,508
12/13/18 14:09,508
12/13/18 14:09,508
12/13/18 14:09,520
12/13/18 14:09,514
12/13/18 14:09,509
12/13/18 14:09,507
12/13/18 14:09,508
12/13/18 14:09,505
12/13/18 14:09,506
12/13/18 14:09,502
12/13/18 14:09,505
12/13/18 14:09,502
12/13/18 14:09,503
12/13/18 14:09,504
12/13/18 14:09,506
12/13/18 14:09,507
12/13/18 14:09,508
12/13/18 14:09,509
12/13/18 14:09,509
12/13/18 14:09,510
12/13/18 14:09,509
12/13/18 14:09,507
12/13/18 14:09,509
12/13/18 14:09,510
12/13/18 14:09,510
12/13/18 14:09,510
12/13/18 14:09,509
12/13/18 14:09,511
12/13/18 14:09,509
12/13/18 14:09,508
12/13/18 14:09,511
12/13/18 14:09,508
12/13/18 14:09,508
12/13/18 14:09,510
12/13/18 14:09,507
12/13/18 14:09,508
12/13/18 14:09,507
12/13/18 14:09,509
12/13/18 14:09,508
12/13/18 14:09,509
12/13/18 14:09,507
12/13/18 14:09,507
12/13/18 14:09,509
12/13/18 14:09,508
12/13/18 14:09,508
12/13/18 14:09,509
12/13/18 14:09,507
12/13/18 14:09,508
12/13/18 14:09,507
12/13/18 14:09,508
12/13/18 14:09,507
12/13/18 14:09,508
12/13/18 14:09,508
12/13/18 14:09,510
12/13/18 14:09,519
12/13/18 14:09,514
12/13/18 14:09,510
12/13/18 14:09,509
12/13/18 14:09,507
12/13/18 14:09,505
12/13/18 14:09,506
12/13/18 14:09,506
12/13/18 14:09,504
12/13/18 14:09,502
12/13/18 14:09,503
12/13/18 14:09,503
12/13/18 14:09,503
12/13/18 14:09,506
12/13/18 14:09,506
12/13/18 14:09,507
12/13/18 14:09,509
12/13/18 14:09,508
12/13/18 14:09,509
12/13/18 14:09,510
12/13/18 14:09,509
12/13/18 14:09,511
12/13/18 14:09,509
12/13/18 14:09,510
12/13/18 14:09,509
12/13/18 14:09,512
12/13/18 14:09,511
12/13/18 14:09,510
12/13/18 14:09,510
12/13/18 14:09,509
12/13/18 14:09,507
12/13/18 14:09,510
12/13/18 14:09,508
12/13/18 14:09,512
12/13/18 14:09,508
12/13/18 14:09,510
12/13/18 14:09,507
12/13/18 14:09,507
12/13/18 14:09,507
12/13/18 14:09,508
12/13/18 14:09,507
12/13/18 14:09,507
12/13/18 14:09,507
12/13/18 14:09,508
12/13/18 14:09,508
12/13/18 14:09,508
12/13/18 14:09,507
12/13/18 14:09,507
12/13/18 14:09,508
12/13/18 14:09,507
12/13/18 14:09,507
12/13/18 14:09,504
12/13/18 14:09,492
12/13/18 14:09,508
12/13/18 14:09,526
12/13/18 14:09,517
12/13/18 14:09,513
12/13/18 14:09,509
12/13/18 14:09,506
12/13/18 14:09,503
12/13/18 14:09,501
12/13/18 14:09,501
12/13/18 14:09,501
12/13/18 14:09,504
12/13/18 14:09,504
12/13/18 14:09,505
12/13/18 14:09,506
12/13/18 14:09,508
12/13/18 14:09,509
12/13/18 14:09,509
12/13/18 14:09,511
12/13/18 14:09,510
12/13/18 14:09,509
12/13/18 14:09,513
12/13/18 14:09,511
12/13/18 14:09,511
12/13/18 14:09,509
12/13/18 14:09,511
12/13/18 14:09,511
12/13/18 14:09,507
12/13/18 14:09,508
12/13/18 14:09,509
12/13/18 14:09,508
12/13/18 14:09,509
12/13/18 14:09,507
12/13/18 14:09,510
12/13/18 14:09,507
12/13/18 14:09,508
12/13/18 14:09,509
12/13/18 14:09,507
12/13/18 14:09,508
12/13/18 14:09,506
12/13/18 14:09,507
12/13/18 14:09,507
12/13/18 14:09,506
12/13/18 14:09,509
12/13/18 14:09,507
12/13/18 14:09,508
12/13/18 14:09,508
12/13/18 14:09,508
12/13/18 14:09,508
12/13/18 14:09,507
12/13/18 14:09,508
12/13/18 14:09,507
12/13/18 14:09,501
12/13/18 14:09,522
12/13/18 14:09,512
12/13/18 14:09,511
12/13/18 14:09,508
12/13/18 14:09,508
12/13/18 14:09,506
12/13/18 14:09,503
12/13/18 14:09,501
12/13/18 14:09,501
12/13/18 14:09,503
12/13/18 14:09,504
12/13/18 14:09,504
12/13/18 14:09,508
12/13/18 14:09,507
12/13/18 14:09,507
12/13/18 14:09,507
12/13/18 14:09,508
12/13/18 14:09,512
12/13/18 14:09,509
12/13/18 14:09,509
12/13/18 14:09,510
12/13/18 14:09,509
12/13/18 14:09,511
12/13/18 14:09,511
12/13/18 14:09,510
12/13/18 14:09,510
12/13/18 14:09,509
12/13/18 14:09,510
12/13/18 14:09,508
12/13/18 14:09,510
12/13/18 14:09,510
12/13/18 14:09,509
12/13/18 14:09,509
12/13/18 14:09,506
12/13/18 14:09,508
12/13/18 14:09,508
12/13/18 14:09,507
12/13/18 14:09,509
12/13/18 14:09,506
12/13/18 14:09,506
12/13/18 14:09,506
12/13/18 14:09,506
12/13/18 14:09,509
12/13/18 14:09,507
12/13/18 14:09,510
12/13/18 14:09,507
12/13/18 14:09,505
12/13/18 14:09,508
12/13/18 14:09,507
12/13/18 14:09,508
12/13/18 14:09,505
12/13/18 14:09,492
12/13/18 14:09,522
12/13/18 14:09,514
12/13/18 14:09,512
12/13/18 14:09,508
12/13/18 14:09,509
12/13/18 14:09,507
12/13/18 14:09,505
12/13/18 14:09,501
12/13/18 14:09,499
12/13/18 14:09,502
12/13/18 14:09,505
12/13/18 14:09,504
12/13/18 14:09,506
12/13/18 14:09,507
12/13/18 14:09,506
12/13/18 14:09,510
12/13/18 14:09,510
12/13/18 14:09,509
12/13/18 14:09,510
12/13/18 14:09,510
12/13/18 14:09,513
12/13/18 14:09,510
12/13/18 14:09,510
12/13/18 14:09,509
12/13/18 14:09,509
12/13/18 14:09,510
12/13/18 14:09,510
12/13/18 14:09,509
12/13/18 14:09,509
12/13/18 14:09,508
12/13/18 14:09,510
12/13/18 14:09,508
12/13/18 14:09,509
12/13/18 14:09,508
12/13/18 14:09,508
12/13/18 14:09,509
12/13/18 14:09,506
12/13/18 14:09,508
12/13/18 14:09,507
12/13/18 14:09,507
12/13/18 14:09,506
12/13/18 14:09,506
12/13/18 14:09,509
12/13/18 14:09,507
12/13/18 14:09,507
12/13/18 14:09,509
12/13/18 14:09,507
12/13/18 14:09,509
12/13/18 14:09,507
12/13/18 14:09,507
12/13/18 14:09,509
12/13/18 14:09,515
12/13/18 14:09,517
12/13/18 14:09,511
12/13/18 14:09,509
12/13/18 14:09,508
12/13/18 14:09,505
12/13/18 14:09,506
12/13/18 14:09,503
12/13/18 14:09,503
12/13/18 14:09,502
12/13/18 14:09,503
12/13/18 14:09,504
12/13/18 14:09,505
12/13/18 14:18,509
12/13/18 14:18,509
12/13/18 14:18,507
12/13/18 14:18,507
12/13/18 14:18,507
12/13/18 14:18,506
12/13/18 14:18,507
12/13/18 14:18,507
12/13/18 14:18,508
12/13/18 14:18,505
12/13/18 14:18,507
12/13/18 14:18,507
12/13/18 14:18,506
12/13/18 14:18,508
12/13/18 14:18,509
12/13/18 14:18,506
12/13/18 14:18,508
12/13/18 14:18,507
12/13/18 14:18,506
12/13/18 14:18,514
12/13/18 14:18,508
12/13/18 14:18,518
12/13/18 14:18,511
12/13/18 14:18,511
12/13/18 14:18,508
12/13/18 14:18,506
12/13/18 14:18,503
12/13/18 14:18,502
12/13/18 14:18,501
12/13/18 14:18,501
12/13/18 14:18,503
12/13/18 14:18,504
12/13/18 14:18,505
12/13/18 14:18,508
12/13/18 14:18,507
12/13/18 14:18,508
12/13/18 14:18,509
12/13/18 14:18,510
12/13/18 14:18,511
12/13/18 14:18,510
12/13/18 14:18,510
12/13/18 14:18,511
12/13/18 14:18,511
12/13/18 14:18,512
12/13/18 14:18,511
12/13/18 14:18,510
12/13/18 14:18,509
12/13/18 14:18,509
12/13/18 14:18,510
12/13/18 14:18,508
12/13/18 14:18,507
12/13/18 14:18,509
12/13/18 14:18,508
12/13/18 14:18,509
12/13/18 14:18,508
12/13/18 14:18,510
12/13/18 14:18,508
12/13/18 14:18,507
12/13/18 14:18,507
12/13/18 14:18,506
12/13/18 14:18,507
12/13/18 14:18,507
12/13/18 14:18,507
12/13/18 14:18,507
12/13/18 14:18,507
12/13/18 14:18,508
12/13/18 14:18,508
12/13/18 14:18,507
12/13/18 14:18,510
12/13/18 14:18,508
12/13/18 14:18,509
12/13/18 14:18,509
12/13/18 14:18,505
12/13/18 14:18,510
12/13/18 14:18,518
12/13/18 14:18,509
12/13/18 14:18,509
12/13/18 14:18,507
12/13/18 14:18,508
12/13/18 14:18,504
12/13/18 14:18,502
12/13/18 14:18,502
12/13/18 14:18,500
12/13/18 14:18,501
12/13/18 14:18,504
12/13/18 14:18,505
12/13/18 14:18,507
12/13/18 14:18,506
12/13/18 14:18,510
12/13/18 14:18,509
12/13/18 14:18,509
12/13/18 14:18,511
12/13/18 14:18,510
12/13/18 14:18,511
12/13/18 14:18,511
12/13/18 14:18,510
12/13/18 14:18,511
12/13/18 14:18,511
12/13/18 14:18,510
12/13/18 14:18,509
12/13/18 14:18,509
12/13/18 14:18,507
12/13/18 14:18,509
12/13/18 14:18,510
12/13/18 14:18,509
12/13/18 14:18,509
12/13/18 14:18,508
12/13/18 14:18,510
12/13/18 14:18,507
12/13/18 14:18,507
12/13/18 14:18,509
12/13/18 14:18,506
12/13/18 14:18,507
12/13/18 14:18,507
12/13/18 14:18,506
12/13/18 14:18,507
12/13/18 14:18,508
12/13/18 14:18,507
12/13/18 14:18,508
12/13/18 14:18,507
12/13/18 14:18,508
12/13/18 14:18,507
12/13/18 14:18,507
12/13/18 14:18,507
12/13/18 14:18,505
12/13/18 14:18,510
12/13/18 14:18,517
12/13/18 14:18,511
12/13/18 14:18,509
12/13/18 14:18,509
12/13/18 14:18,507
12/13/18 14:18,504
12/13/18 14:18,504
12/13/18 14:18,502
12/13/18 14:18,502
12/13/18 14:18,503
12/13/18 14:18,502
12/13/18 14:18,504
12/13/18 14:18,505
12/13/18 14:18,507
12/13/18 14:18,508
12/13/18 14:18,507
12/13/18 14:18,509
12/13/18 14:18,509
12/13/18 14:18,509
12/13/18 14:18,513
12/13/18 14:18,510
12/13/18 14:18,510
12/13/18 14:18,509
12/13/18 14:18,510
12/13/18 14:18,511
12/13/18 14:18,509
12/13/18 14:18,511
12/13/18 14:18,509
12/13/18 14:18,509
12/13/18 14:18,509
12/13/18 14:18,509
12/13/18 14:18,510
12/13/18 14:18,507
12/13/18 14:18,509
12/13/18 14:18,507
12/13/18 14:18,507
12/13/18 14:18,507
12/13/18 14:18,507
12/13/18 14:18,509
12/13/18 14:18,507
12/13/18 14:18,506
12/13/18 14:18,508
12/13/18 14:18,508
12/13/18 14:18,508
12/13/18 14:18,507
12/13/18 14:18,507
12/13/18 14:18,509
12/13/18 14:18,507
12/13/18 14:18,507
12/13/18 14:18,508
12/13/18 14:18,508
12/13/18 14:18,508
12/13/18 14:18,507
12/13/18 14:18,506
12/13/18 14:18,519
12/13/18 14:18,509
12/13/18 14:18,511
12/13/18 14:18,508
12/13/18 14:18,506
12/13/18 14:18,506
12/13/18 14:18,502
12/13/18 14:18,501
12/13/18 14:18,502
12/13/18 14:18,504
12/13/18 14:18,505
12/13/18 14:18,505
12/13/18 14:18,506
12/13/18 14:18,505
12/13/18 14:18,507
12/13/18 14:18,507
12/13/18 14:18,509
12/13/18 14:18,510
12/13/18 14:18,510
12/13/18 14:18,511
12/13/18 14:18,511
12/13/18 14:18,510
12/13/18 14:18,511
12/13/18 14:18,509
12/13/18 14:18,510
12/13/18 14:18,510
12/13/18 14:18,509
12/13/18 14:18,511
12/13/18 14:18,509
12/13/18 14:18,508
12/13/18 14:18,509
12/13/18 14:18,510
12/13/18 14:18,510
12/13/18 14:18,508
12/13/18 14:18,508
12/13/18 14:18,507
12/13/18 14:18,509
12/13/18 14:18,506
12/13/18 14:18,507
12/13/18 14:18,507
12/13/18 14:18,506
12/13/18 14:18,506
12/13/18 14:18,507
12/13/18 14:18,507
12/13/18 14:18,508
12/13/18 14:18,506
12/13/18 14:18,507
12/13/18 14:18,508
12/13/18 14:18,508
12/13/18 14:18,509
12/13/18 14:18,507
12/13/18 14:18,507
12/13/18 14:18,497
12/13/18 14:18,521
12/13/18 14:18,513
12/13/18 14:18,510
12/13/18 14:18,510
12/13/18 14:18,509
12/13/18 14:18,505
12/13/18 14:18,503
12/13/18 14:18,501
12/13/18 14:18,503
12/13/18 14:18,501
12/13/18 14:18,504
12/13/18 14:18,505
12/13/18 14:18,505
12/13/18 14:18,508
12/13/18 14:18,508
12/13/18 14:18,506
12/13/18 14:18,509
12/13/18 14:18,508
12/13/18 14:18,512
12/13/18 14:18,510
12/13/18 14:18,509
12/13/18 14:18,511
12/13/18 14:18,510
12/13/18 14:18,511
12/13/18 14:18,511
12/13/18 14:18,511
12/13/18 14:18,509
12/13/18 14:18,509
12/13/18 14:18,509
12/13/18 14:18,508
12/13/18 14:18,508
12/13/18 14:18,508
12/13/18 14:18,509
12/13/18 14:18,508
12/13/18 14:18,509
12/13/18 14:18,508
12/13/18 14:18,507
12/13/18 14:18,507
12/13/18 14:18,508
12/13/18 14:18,507
12/13/18 14:18,508
12/13/18 14:18,509
12/13/18 14:18,506
12/13/18 14:18,508
12/13/18 14:18,508
12/13/18 14:18,507
12/13/18 14:18,508
12/13/18 14:18,507
12/13/18 14:18,509
12/13/18 14:18,509
12/13/18 14:18,507
12/13/18 14:18,498
12/13/18 14:18,521
12/13/18 14:18,513
12/13/18 14:18,510
12/13/18 14:18,510
12/13/18 14:18,507
12/13/18 14:18,507
12/13/18 14:18,506
12/13/18 14:18,504
12/13/18 14:18,503
12/13/18 14:18,501
12/13/18 14:18,502
12/13/18 14:18,505
12/13/18 14:18,504
12/13/18 14:18,505
12/13/18 14:18,507
12/13/18 14:18,507
12/13/18 14:18,508
12/13/18 14:18,506
12/13/18 14:18,510
12/13/18 14:18,510
12/13/18 14:18,509
12/13/18 14:18,509
12/13/18 14:18,512
12/13/18 14:18,512
12/13/18 14:18,509
12/13/18 14:18,510
12/13/18 14:18,510
12/13/18 14:18,509
12/13/18 14:18,509
12/13/18 14:18,508
12/13/18 14:18,509
12/13/18 14:18,509
12/13/18 14:18,508
12/13/18 14:18,509
12/13/18 14:18,509
12/13/18 14:18,508
12/13/18 14:18,509
12/13/18 14:18,507
12/13/18 14:18,507
12/13/18 14:18,508
12/13/18 14:18,506
12/13/18 14:18,506
12/13/18 14:18,507
12/13/18 14:18,507
12/13/18 14:18,508
12/13/18 14:18,508
12/13/18 14:18,508
12/13/18 14:18,506
12/13/18 14:18,508
12/13/18 14:18,507
12/13/18 14:18,509
12/13/18 14:18,507
12/13/18 14:18,521
12/13/18 14:18,513
12/13/18 14:18,515
12/13/18 14:18,512
12/13/18 14:18,512
12/13/18 14:18,507
12/13/18 14:18,509
12/13/18 14:18,506
12/13/18 14:18,500
12/13/18 14:18,499
12/13/18 14:18,500
12/13/18 14:18,503
12/13/18 14:18,503
12/13/18 14:18,506
12/13/18 14:18,507
12/13/18 14:18,506
12/13/18 14:18,509
12/13/18 14:18,509
12/13/18 14:18,510
12/13/18 14:18,510
12/13/18 14:18,508
12/13/18 14:18,511
12/13/18 14:18,512
12/13/18 14:18,513
12/13/18 14:18,510
12/13/18 14:18,511
12/13/18 14:18,510
12/13/18 14:18,507
12/13/18 14:18,509
12/13/18 14:18,510
12/13/18 14:18,510
12/13/18 14:18,511
12/13/18 14:18,506
12/13/18 14:18,508
12/13/18 14:18,508
12/13/18 14:18,508
12/13/18 14:18,508
12/13/18 14:18,505
12/13/18 14:18,507
12/13/18 14:18,507
12/13/18 14:18,507
12/13/18 14:18,508
12/13/18 14:18,506
12/13/18 14:18,508
12/13/18 14:18,509
12/13/18 14:18,508
12/13/18 14:18,507
12/13/18 14:18,507
12/13/18 14:18,509
12/13/18 14:18,508
12/13/18 14:18,509
12/13/18 14:18,506
12/13/18 14:18,498
12/13/18 14:18,525
12/13/18 14:18,512
12/13/18 14:18,509
12/13/18 14:18,509
12/13/18 14:18,507
12/13/18 14:18,506
12/13/18 14:18,500
12/13/18 14:18,500
12/13/18 14:18,501
12/13/18 14:18,502
12/13/18 14:18,503
12/13/18 14:18,504
12/13/18 14:18,508
12/13/18 14:18,505
12/13/18 14:18,507
12/13/18 14:18,509
12/13/18 14:18,510
12/13/18 14:18,510
12/13/18 14:18,513
12/13/18 14:18,510
12/13/18 14:18,511
12/13/18 14:18,510
12/13/18 14:18,511
12/13/18 14:18,513
12/13/18 14:18,511
12/13/18 14:18,509
12/13/18 14:18,510
12/13/18 14:18,510
12/13/18 14:18,508
12/13/18 14:18,509
12/13/18 14:18,510
12/13/18 14:18,509
12/13/18 14:18,509
12/13/18 14:18,508
12/13/18 14:18,506
12/13/18 14:18,508
12/13/18 14:18,507
12/13/18 14:18,507
12/13/18 14:18,506
12/13/18 14:18,506
12/13/18 14:18,508
12/13/18 14:18,507
12/13/18 14:18,507
12/13/18 14:18,507
12/13/18 14:18,508
12/13/18 14:18,509
12/13/18 14:18,506
12/13/18 14:18,510
12/13/18 14:18,509
12/13/18 14:18,508
12/13/18 14:18,509
12/13/18 14:18,507
12/13/18 14:18,502
12/13/18 14:18,519
12/13/18 14:18,515
12/13/18 14:18,513
12/13/18 14:18,509
12/13/18 14:18,510
12/13/18 14:18,505
12/13/18 14:18,507
12/13/18 14:18,504
12/13/18 14:18,501
12/13/18 14:18,502
12/13/18 14:18,502
12/13/18 14:18,502
12/13/18 14:18,505
12/13/18 14:18,505
12/13/18 14:18,508
12/13/18 14:18,507
12/13/18 14:18,510
12/13/18 14:18,508
12/13/18 14:18,509
12/13/18 14:18,510
12/13/18 14:18,509
12/13/18 14:18,511
12/13/18 14:18,510
12/13/18 14:18,510
12/13/18 14:18,510
12/13/18 14:18,509
12/13/18 14:18,510
12/13/18 14:18,510
12/13/18 14:18,507
12/13/18 14:18,510
12/13/18 14:18,508
12/13/18 14:18,508
12/13/18 14:18,508
12/13/18 14:18,509
12/13/18 14:18,509
12/13/18 14:18,508
12/13/18 14:18,506
12/13/18 14:18,507
12/13/18 14:18,508
12/13/18 14:18,508
12/13/18 14:18,506
12/13/18 14:18,507
12/13/18 14:18,507
12/13/18 14:18,507
12/13/18 14:18,508
12/13/18 14:18,507
12/13/18 14:18,508
12/13/18 14:18,508
12/13/18 14:18,509
12/13/18 14:18,508
12/13/18 14:18,507
12/13/18 14:18,507
12/13/18 14:18,488
12/13/18 14:18,517
12/13/18 14:18,523
12/13/18 14:18,515
12/13/18 14:18,512
12/13/18 14:18,510
12/13/18 14:18,506
12/13/18 14:18,503
12/13/18 14:18,500
12/13/18 14:18,500
12/13/18 14:18,503
12/13/18 14:18,503
12/13/18 14:18,506
12/13/18 14:18,506
12/13/18 14:18,508
12/13/18 14:18,507
12/13/18 14:18,508
12/13/18 14:18,508
12/13/18 14:18,509
12/13/18 14:18,510
12/13/18 14:18,509
12/13/18 14:18,510
12/13/18 14:18,510
12/13/18 14:18,510
12/13/18 14:18,511
12/13/18 14:18,510
12/13/18 14:18,510
12/13/18 14:18,510
12/13/18 14:18,509
12/13/18 14:18,510
12/13/18 14:18,509
12/13/18 14:18,509
12/13/18 14:18,509
12/13/18 14:18,509
12/13/18 14:18,509
12/13/18 14:18,506
12/13/18 14:18,508
12/13/18 14:18,509
12/13/18 14:18,507
12/13/18 14:18,509
12/13/18 14:18,506
12/13/18 14:18,507
12/13/18 14:18,506
12/13/18 14:18,506
12/13/18 14:18,510
12/13/18 14:18,507
12/13/18 14:18,509
12/13/18 14:18,509
12/13/18 14:18,507
12/13/18 14:18,508
12/13/18 14:18,507
12/13/18 14:18,508
12/13/18 14:18,503
12/13/18 14:18,519
12/13/18 14:18,514
12/13/18 14:18,510
12/13/18 14:18,512
12/13/18 14:18,508
12/13/18 14:18,505
12/13/18 14:18,508
12/13/18 14:18,505
12/13/18 14:18,502
12/13/18 14:18,501
12/13/18 14:18,503
12/13/18 14:18,503
12/13/18 14:18,502
12/13/18 14:18,506
12/13/18 14:18,505
12/13/18 14:18,507
12/13/18 14:18,508
12/13/18 14:18,509
12/13/18 14:18,509
12/13/18 14:18,510
12/13/18 14:18,510
12/13/18 14:18,511
12/13/18 14:18,510
12/13/18 14:18,513
12/13/18 14:18,511
12/13/18 14:18,509
12/13/18 14:18,510
12/13/18 14:18,510
12/13/18 14:18,509
12/13/18 14:18,508
12/13/18 14:18,510
12/13/18 14:18,509
12/13/18 14:18,508
12/13/18 14:18,509
12/13/18 14:18,508
12/13/18 14:18,508
12/13/18 14:18,506
12/13/18 14:18,506
12/13/18 14:18,508
12/13/18 14:18,507
12/13/18 14:18,506
12/13/18 14:18,508
12/13/18 14:18,507
12/13/18 14:18,509
12/13/18 14:18,506
12/13/18 14:18,508
12/13/18 14:18,508
12/13/18 14:18,507
12/13/18 14:18,508
12/13/18 14:18,507
12/13/18 14:18,508
12/13/18 14:18,506
12/13/18 14:27,508
12/13/18 14:27,509
12/13/18 14:27,507
12/13/18 14:27,510
12/13/18 14:27,508
12/13/18 14:27,509
12/13/18 14:27,512
12/13/18 14:27,508
12/13/18 14:27,510
12/13/18 14:27,508
12/13/18 14:27,510
12/13/18 14:27,511
12/13/18 14:27,507
12/13/18 14:27,509
12/13/18 14:27,508
12/13/18 14:27,507
12/13/18 14:27,508
12/13/18 14:27,507
12/13/18 14:27,507
12/13/18 14:27,506
12/13/18 14:27,507
12/13/18 14:27,508
12/13/18 14:27,506
12/13/18 14:27,508
12/13/18 14:27,507
12/13/18 14:27,507
12/13/18 14:27,509
12/13/18 14:27,506
12/13/18 14:27,508
12/13/18 14:27,506
12/13/18 14:27,508
12/13/18 14:27,509
12/13/18 14:27,506
12/13/18 14:27,516
12/13/18 14:27,516
12/13/18 14:27,513
12/13/18 14:27,510
12/13/18 14:27,508
12/13/18 14:27,508
12/13/18 14:27,507
12/13/18 14:27,505
12/13/18 14:27,501
12/13/18 14:27,499
12/13/18 14:27,503
12/13/18 14:27,503
12/13/18 14:27,504
12/13/18 14:27,505
12/13/18 14:27,506
12/13/18 14:27,509
12/13/18 14:27,507
12/13/18 14:27,511
12/13/18 14:27,511
12/13/18 14:27,509
12/13/18 14:27,513
12/13/18 14:27,509
12/13/18 14:27,514
12/13/18 14:27,510
12/13/18 14:27,509
12/13/18 14:27,511
12/13/18 14:27,508
12/13/18 14:27,511
12/13/18 14:27,509
12/13/18 14:27,509
12/13/18 14:27,510
12/13/18 14:27,507
12/13/18 14:27,509
12/13/18 14:27,508
12/13/18 14:27,508
12/13/18 14:27,509
12/13/18 14:27,506
12/13/18 14:27,509
12/13/18 14:27,509
12/13/18 14:27,508
12/13/18 14:27,508
12/13/18 14:27,506
12/13/18 14:27,509
12/13/18 14:27,507
12/13/18 14:27,507
12/13/18 14:27,507
12/13/18 14:27,505
12/13/18 14:27,509
12/13/18 14:27,506
12/13/18 14:27,507
12/13/18 14:27,507
12/13/18 14:27,527
12/13/18 14:27,516
12/13/18 14:27,506
12/13/18 14:27,507
12/13/18 14:27,506
12/13/18 14:27,505
12/13/18 14:27,510
12/13/18 14:27,504
12/13/18 14:27,501
12/13/18 14:27,500
12/13/18 14:27,499
12/13/18 14:27,504
12/13/18 14:27,504
12/13/18 14:27,506
12/13/18 14:27,507
12/13/18 14:27,507
12/13/18 14:27,509
12/13/18 14:27,509
12/13/18 14:27,510
12/13/18 14:27,510
12/13/18 14:27,511
12/13/18 14:27,511
12/13/18 14:27,508
12/13/18 14:27,513
12/13/18 14:27,510
12/13/18 14:27,509
12/13/18 14:27,510
12/13/18 14:27,508
12/13/18 14:27,510
12/13/18 14:27,511
12/13/18 14:27,508
12/13/18 14:27,510
12/13/18 14:27,508
12/13/18 14:27,509
12/13/18 14:27,508
12/13/18 14:27,508
12/13/18 14:27,511
12/13/18 14:27,507
12/13/18 14:27,508
12/13/18 14:27,506
12/13/18 14:27,507
12/13/18 14:27,508
12/13/18 14:27,506
12/13/18 14:27,509
12/13/18 14:27,507
12/13/18 14:27,506
12/13/18 14:27,508
12/13/18 14:27,507
12/13/18 14:27,509
12/13/18 14:27,507
12/13/18 14:27,507
12/13/18 14:27,510
12/13/18 14:27,507
12/13/18 14:27,520
12/13/18 14:27,515
12/13/18 14:27,511
12/13/18 14:27,510
12/13/18 14:27,507
12/13/18 14:27,508
12/13/18 14:27,502
12/13/18 14:27,500
12/13/18 14:27,501
12/13/18 14:27,499
12/13/18 14:27,503
12/13/18 14:27,503
12/13/18 14:27,505
12/13/18 14:27,506
12/13/18 14:27,506
12/13/18 14:27,509
12/13/18 14:27,509
12/13/18 14:27,511
12/13/18 14:27,510
12/13/18 14:27,510
12/13/18 14:27,513
12/13/18 14:27,509
12/13/18 14:27,510
12/13/18 14:27,512
12/13/18 14:27,510
12/13/18 14:27,512
12/13/18 14:27,509
12/13/18 14:27,508
12/13/18 14:27,510
12/13/18 14:27,510
12/13/18 14:27,510
12/13/18 14:27,506
12/13/18 14:27,510
12/13/18 14:27,510
12/13/18 14:27,508
12/13/18 14:27,509
12/13/18 14:27,505
12/13/18 14:27,509
12/13/18 14:27,507
12/13/18 14:27,506
12/13/18 14:27,509
12/13/18 14:27,506
12/13/18 14:27,507
12/13/18 14:27,507
12/13/18 14:27,506
12/13/18 14:27,507
12/13/18 14:27,507
12/13/18 14:27,508
12/13/18 14:27,509
12/13/18 14:27,509
12/13/18 14:27,509
12/13/18 14:27,505
12/13/18 14:27,506
12/13/18 14:27,505
12/13/18 14:27,515
12/13/18 14:27,511
12/13/18 14:27,508
12/13/18 14:27,508
12/13/18 14:27,507
12/13/18 14:27,505
12/13/18 14:27,508
12/13/18 14:27,503
12/13/18 14:27,504
12/13/18 14:27,501
12/13/18 14:27,502
12/13/18 14:27,506
12/13/18 14:27,504
12/13/18 14:27,507
12/13/18 14:27,507
12/13/18 14:27,509
12/13/18 14:27,509
12/13/18 14:27,508
12/13/18 14:27,511
12/13/18 14:27,511
12/13/18 14:27,510
12/13/18 14:27,510
12/13/18 14:27,511
12/13/18 14:27,512
12/13/18 14:27,509
12/13/18 14:27,509
12/13/18 14:27,510
12/13/18 14:27,508
12/13/18 14:27,510
12/13/18 14:27,509
12/13/18 14:27,510
12/13/18 14:27,511
12/13/18 14:27,508
12/13/18 14:27,511
12/13/18 14:27,506
12/13/18 14:27,509
12/13/18 14:27,509
12/13/18 14:27,507
12/13/18 14:27,510
12/13/18 14:27,506
12/13/18 14:27,508
12/13/18 14:27,508
12/13/18 14:27,508
12/13/18 14:27,508
12/13/18 14:27,507
12/13/18 14:27,510
12/13/18 14:27,507
12/13/18 14:27,508
12/13/18 14:27,509
12/13/18 14:27,507
12/13/18 14:27,508
12/13/18 14:27,507
12/13/18 14:27,510
12/13/18 14:27,519
12/13/18 14:27,512
12/13/18 14:27,510
12/13/18 14:27,507
12/13/18 14:27,504
12/13/18 14:27,505
12/13/18 14:27,501
12/13/18 14:27,502
12/13/18 14:27,500
12/13/18 14:27,503
12/13/18 14:27,505
12/13/18 14:27,504
12/13/18 14:27,509
12/13/18 14:27,507
12/13/18 14:27,508
12/13/18 14:27,509
12/13/18 14:27,507
12/13/18 14:27,510
12/13/18 14:27,509
12/13/18 14:27,511
12/13/18 14:27,511
12/13/18 14:27,510
12/13/18 14:27,513
12/13/18 14:27,509
12/13/18 14:27,510
12/13/18 14:27,510
12/13/18 14:27,509
12/13/18 14:27,510
12/13/18 14:27,506
12/13/18 14:27,509
12/13/18 14:27,510
12/13/18 14:27,506
12/13/18 14:27,511
12/13/18 14:27,507
12/13/18 14:27,510
12/13/18 14:27,508
12/13/18 14:27,506
12/13/18 14:27,508
12/13/18 14:27,505
12/13/18 14:27,508
12/13/18 14:27,507
12/13/18 14:27,507
12/13/18 14:27,510
12/13/18 14:27,507
12/13/18 14:27,509
12/13/18 14:27,509
12/13/18 14:27,506
12/13/18 14:27,509
12/13/18 14:27,506
12/13/18 14:27,507
12/13/18 14:27,506
12/13/18 14:27,487
12/13/18 14:27,524
12/13/18 14:27,517
12/13/18 14:27,515
12/13/18 14:27,510
12/13/18 14:27,508
12/13/18 14:27,509
12/13/18 14:27,504
12/13/18 14:27,502
12/13/18 14:27,499
12/13/18 14:27,500
12/13/18 14:27,503
12/13/18 14:27,503
12/13/18 14:27,505
12/13/18 14:27,507
12/13/18 14:27,508
12/13/18 14:27,509
12/13/18 14:27,507
12/13/18 14:27,509
12/13/18 14:27,508
12/13/18 14:27,510
12/13/18 14:27,511
12/13/18 14:27,509
12/13/18 14:27,513
12/13/18 14:27,511
12/13/18 14:27,511
12/13/18 14:27,512
12/13/18 14:27,509
12/13/18 14:27,510
12/13/18 14:27,508
12/13/18 14:27,509
12/13/18 14:27,512
12/13/18 14:27,507
12/13/18 14:27,509
12/13/18 14:27,506
12/13/18 14:27,509
12/13/18 14:27,508
12/13/18 14:27,506
12/13/18 14:27,508
12/13/18 14:27,506
12/13/18 14:27,509
12/13/18 14:27,508
12/13/18 14:27,506
12/13/18 14:27,510
12/13/18 14:27,506
12/13/18 14:27,509
12/13/18 14:27,509
12/13/18 14:27,506
12/13/18 14:27,508
12/13/18 14:27,506
12/13/18 14:27,509
12/13/18 14:27,507
12/13/18 14:27,498
12/13/18 14:27,523
12/13/18 14:27,511
12/13/18 14:27,512
12/13/18 14:27,507
12/13/18 14:27,506
12/13/18 14:27,505
12/13/18 14:27,501
12/13/18 14:27,504
12/13/18 14:27,500
12/13/18 14:27,502
12/13/18 14:27,504
12/13/18 14:27,504
12/13/18 14:27,508
12/13/18 14:27,507
12/13/18 14:27,507
12/13/18 14:27,510
12/13/18 14:27,507
12/13/18 14:27,510
12/13/18 14:27,511
12/13/18 14:27,508
12/13/18 14:27,511
12/13/18 14:27,509
12/13/18 14:27,513
12/13/18 14:27,511
12/13/18 14:27,511
12/13/18 14:27,510
12/13/18 14:27,509
12/13/18 14:27,510
12/13/18 14:27,509
12/13/18 14:27,509
12/13/18 14:27,508
12/13/18 14:27,508
12/13/18 14:27,510
12/13/18 14:27,506
12/13/18 14:27,509
12/13/18 14:27,508
12/13/18 14:27,506
12/13/18 14:27,509
12/13/18 14:27,507
12/13/18 14:27,508
12/13/18 14:27,507
12/13/18 14:27,506
12/13/18 14:27,509
12/13/18 14:27,506
12/13/18 14:27,509
12/13/18 14:27,508
12/13/18 14:27,506
12/13/18 14:27,508
12/13/18 14:27,507
12/13/18 14:27,509
12/13/18 14:27,509
12/13/18 14:27,507
12/13/18 14:27,506
12/13/18 14:27,518
12/13/18 14:27,515
12/13/18 14:27,512
12/13/18 14:27,508
12/13/18 14:27,508
12/13/18 14:27,503
12/13/18 14:27,506
12/13/18 14:27,502
12/13/18 14:27,500
12/13/18 14:27,503
12/13/18 14:27,502
12/13/18 14:27,506
12/13/18 14:27,504
12/13/18 14:27,505
12/13/18 14:27,508
12/13/18 14:27,506
12/13/18 14:27,509
12/13/18 14:27,509
12/13/18 14:27,509
12/13/18 14:27,510
12/13/18 14:27,510
12/13/18 14:27,512
12/13/18 14:27,509
12/13/18 14:27,510
12/13/18 14:27,513
12/13/18 14:27,507
12/13/18 14:27,511
12/13/18 14:27,510
12/13/18 14:27,509
12/13/18 14:27,509
12/13/18 14:27,508
12/13/18 14:27,512
12/13/18 14:27,508
12/13/18 14:27,509
12/13/18 14:27,509
12/13/18 14:27,507
12/13/18 14:27,510
12/13/18 14:27,506
12/13/18 14:27,507
12/13/18 14:27,506
12/13/18 14:27,506
12/13/18 14:27,508
12/13/18 14:27,506
12/13/18 14:27,508
12/13/18 14:27,508
12/13/18 14:27,506
12/13/18 14:27,510
12/13/18 14:27,508
12/13/18 14:27,508
12/13/18 14:27,508
12/13/18 14:27,507
12/13/18 14:27,509
12/13/18 14:27,503
12/13/18 14:27,501
12/13/18 14:27,519
12/13/18 14:27,513
12/13/18 14:27,512
12/13/18 14:27,509
12/13/18 14:27,508
12/13/18 14:27,504
12/13/18 14:27,503
12/13/18 14:27,503
12/13/18 14:27,500
12/13/18 14:27,502
12/13/18 14:27,503
12/13/18 14:27,505
12/13/18 14:27,508
12/13/18 14:27,506
12/13/18 14:27,509
12/13/18 14:27,509
12/13/18 14:27,506
12/13/18 14:27,511
12/13/18 14:27,509
12/13/18 14:27,511
12/13/18 14:27,510
12/13/18 14:27,510
12/13/18 14:27,512
12/13/18 14:27,508
12/13/18 14:27,510
12/13/18 14:27,511
12/13/18 14:27,510
12/13/18 14:27,512
12/13/18 14:27,509
12/13/18 14:27,508
12/13/18 14:27,509
12/13/18 14:27,510
12/13/18 14:27,508
12/13/18 14:27,507
12/13/18 14:27,510
12/13/18 14:27,506
12/13/18 14:27,508
12/13/18 14:27,508
12/13/18 14:27,506
12/13/18 14:27,507
12/13/18 14:27,507
12/13/18 14:27,508
12/13/18 14:27,509
12/13/18 14:27,505
12/13/18 14:27,509
12/13/18 14:27,507
12/13/18 14:27,507
12/13/18 14:27,507
12/13/18 14:27,508
12/13/18 14:27,509
12/13/18 14:27,506
12/13/18 14:27,513
12/13/18 14:27,496
12/13/18 14:27,520
12/13/18 14:27,515
12/13/18 14:27,509
12/13/18 14:27,509
12/13/18 14:27,506
12/13/18 14:27,505
12/13/18 14:27,507
12/13/18 14:27,503
12/13/18 14:27,503
12/13/18 14:27,502
12/13/18 14:27,502
12/13/18 14:27,504
12/13/18 14:27,503
12/13/18 14:27,506
12/13/18 14:27,507
12/13/18 14:27,507
12/13/18 14:27,511
12/13/18 14:27,510
12/13/18 14:27,513
12/13/18 14:27,511
12/13/18 14:27,509
12/13/18 14:27,512
12/13/18 14:27,509
12/13/18 14:27,511
12/13/18 14:27,510
12/13/18 14:27,509
12/13/18 14:27,510
12/13/18 14:27,508
12/13/18 14:27,511
12/13/18 14:27,510
12/13/18 14:27,508
12/13/18 14:27,509
12/13/18 14:27,509
12/13/18 14:27,508
12/13/18 14:27,508
12/13/18 14:27,507
12/13/18 14:27,509
12/13/18 14:27,505
12/13/18 14:27,509
12/13/18 14:27,507
12/13/18 14:27,507
12/13/18 14:27,508
12/13/18 14:27,506
12/13/18 14:27,508
12/13/18 14:27,507
12/13/18 14:27,508
12/13/18 14:27,510
12/13/18 14:27,505
12/13/18 14:27,508
12/13/18 14:27,507
12/13/18 14:27,509
12/13/18 14:27,505
12/13/18 14:27,486
12/13/18 14:27,524
12/13/18 14:27,519
12/13/18 14:27,513
12/13/18 14:27,510
12/13/18 14:27,507
12/13/18 14:27,506
12/13/18 14:27,502
12/13/18 14:27,500
12/13/18 14:27,501
12/13/18 14:27,502
12/13/18 14:27,506
12/13/18 14:27,505
12/13/18 14:27,506
12/13/18 14:27,508
12/13/18 14:27,508
12/13/18 14:27,510
12/13/18 14:27,507
12/13/18 14:27,509
12/13/18 14:27,510
12/13/18 14:27,509
12/13/18 14:27,511
12/13/18 14:27,507
12/13/18 14:27,513
12/13/18 14:27,509
12/13/18 14:27,509
12/13/18 14:27,512
12/13/18 14:27,507
12/13/18 14:27,510
12/13/18 14:27,508
12/13/18 14:27,510
12/13/18 14:27,510
12/13/18 14:27,508
12/13/18 14:27,510
12/13/18 14:27,508
12/13/18 14:27,509
12/13/18 14:27,510
12/13/18 14:27,505
12/13/18 14:27,509
12/13/18 14:27,505
12/13/18 14:36,506
12/13/18 14:36,506
12/13/18 14:36,506
12/13/18 14:36,507
12/13/18 14:36,506
12/13/18 14:36,507
12/13/18 14:36,506
12/13/18 14:36,508
12/13/18 14:36,507
12/13/18 14:36,510
12/13/18 14:36,515
12/13/18 14:36,516
12/13/18 14:36,513
12/13/18 14:36,508
12/13/18 14:36,508
12/13/18 14:36,506
12/13/18 14:36,502
12/13/18 14:36,500
12/13/18 14:36,500
12/13/18 14:36,501
12/13/18 14:36,503
12/13/18 14:36,504
12/13/18 14:36,508
12/13/18 14:36,505
12/13/18 14:36,506
12/13/18 14:36,506
12/13/18 14:36,509
12/13/18 14:36,508
12/13/18 14:36,509
12/13/18 14:36,512
12/13/18 14:36,511
12/13/18 14:36,512
12/13/18 14:36,511
12/13/18 14:36,511
12/13/18 14:36,510
12/13/18 14:36,510
12/13/18 14:36,510
12/13/18 14:36,510
12/13/18 14:36,509
12/13/18 14:36,510
12/13/18 14:36,509
12/13/18 14:36,509
12/13/18 14:36,509
12/13/18 14:36,508
12/13/18 14:36,509
12/13/18 14:36,509
12/13/18 14:36,507
12/13/18 14:36,507
12/13/18 14:36,507
12/13/18 14:36,509
12/13/18 14:36,507
12/13/18 14:36,507
12/13/18 14:36,507
12/13/18 14:36,507
12/13/18 14:36,508
12/13/18 14:36,508
12/13/18 14:36,507
12/13/18 14:36,508
12/13/18 14:36,506
12/13/18 14:36,507
12/13/18 14:36,507
12/13/18 14:36,507
12/13/18 14:36,511
12/13/18 14:36,483
12/13/18 14:36,530
12/13/18 14:36,520
12/13/18 14:36,515
12/13/18 14:36,510
12/13/18 14:36,510
12/13/18 14:36,505
12/13/18 14:36,503
12/13/18 14:36,499
12/13/18 14:36,502
12/13/18 14:36,502
12/13/18 14:36,504
12/13/18 14:36,506
12/13/18 14:36,507
12/13/18 14:36,508
12/13/18 14:36,507
12/13/18 14:36,509
12/13/18 14:36,507
12/13/18 14:36,510
12/13/18 14:36,510
12/13/18 14:36,510
12/13/18 14:36,511
12/13/18 14:36,510
12/13/18 14:36,511
12/13/18 14:36,511
12/13/18 14:36,510
12/13/18 14:36,510
12/13/18 14:36,509
12/13/18 14:36,510
12/13/18 14:36,509
12/13/18 14:36,510
12/13/18 14:36,509
12/13/18 14:36,508
12/13/18 14:36,508
12/13/18 14:36,509
12/13/18 14:36,508
12/13/18 14:36,507
12/13/18 14:36,507
12/13/18 14:36,507
12/13/18 14:36,507
12/13/18 14:36,509
12/13/18 14:36,507
12/13/18 14:36,508
12/13/18 14:36,508
12/13/18 14:36,507
12/13/18 14:36,508
12/13/18 14:36,510
12/13/18 14:36,507
12/13/18 14:36,509
12/13/18 14:36,509
12/13/18 14:36,507
12/13/18 14:36,508
12/13/18 14:36,505
12/13/18 14:36,513
12/13/18 14:36,518
12/13/18 14:36,510
12/13/18 14:36,510
12/13/18 14:36,507
12/13/18 14:36,507
12/13/18 14:36,506
12/13/18 14:36,503
12/13/18 14:36,500
12/13/18 14:36,500
12/13/18 14:36,503
12/13/18 14:36,504
12/13/18 14:36,505
12/13/18 14:36,507
12/13/18 14:36,505
12/13/18 14:36,506
12/13/18 14:36,507
12/13/18 14:36,511
12/13/18 14:36,511
12/13/18 14:36,510
12/13/18 14:36,511
12/13/18 14:36,511
12/13/18 14:36,513
12/13/18 14:36,512
12/13/18 14:36,510
12/13/18 14:36,511
12/13/18 14:36,510
12/13/18 14:36,509
12/13/18 14:36,510
12/13/18 14:36,509
12/13/18 14:36,511
12/13/18 14:36,508
12/13/18 14:36,508
12/13/18 14:36,509
12/13/18 14:36,507
12/13/18 14:36,508
12/13/18 14:36,506
12/13/18 14:36,508
12/13/18 14:36,507
12/13/18 14:36,506
12/13/18 14:36,507
12/13/18 14:36,507
12/13/18 14:36,506
12/13/18 14:36,507
12/13/18 14:36,507
12/13/18 14:36,508
12/13/18 14:36,508
12/13/18 14:36,508
12/13/18 14:36,508
12/13/18 14:36,507
12/13/18 14:36,508
12/13/18 14:36,506
12/13/18 14:36,506
12/13/18 14:36,505
12/13/18 14:36,520
12/13/18 14:36,515
12/13/18 14:36,508
12/13/18 14:36,508
12/13/18 14:36,507
12/13/18 14:36,503
12/13/18 14:36,502
12/13/18 14:36,501
12/13/18 14:36,503
12/13/18 14:36,504
12/13/18 14:36,506
12/13/18 14:36,507
12/13/18 14:36,507
12/13/18 14:36,507
12/13/18 14:36,508
12/13/18 14:36,507
12/13/18 14:36,511
12/13/18 14:36,509
12/13/18 14:36,509
12/13/18 14:36,509
12/13/18 14:36,512
12/13/18 14:36,509
12/13/18 14:36,510
12/13/18 14:36,511
12/13/18 14:36,510
12/13/18 14:36,510
12/13/18 14:36,510
12/13/18 14:36,508
12/13/18 14:36,509
12/13/18 14:36,509
12/13/18 14:36,509
12/13/18 14:36,509
12/13/18 14:36,509
12/13/18 14:36,509
12/13/18 14:36,508
12/13/18 14:36,508
12/13/18 14:36,507
12/13/18 14:36,507
12/13/18 14:36,508
12/13/18 14:36,505
12/13/18 14:36,506
12/13/18 14:36,508
12/13/18 14:36,506
12/13/18 14:36,508
12/13/18 14:36,509
12/13/18 14:36,508
12/13/18 14:36,507
12/13/18 14:36,508
12/13/18 14:36,508
12/13/18 14:36,508
12/13/18 14:36,506
12/13/18 14:36,505
12/13/18 14:36,504
12/13/18 14:36,521
12/13/18 14:36,513
12/13/18 14:36,509
12/13/18 14:36,508
12/13/18 14:36,505
12/13/18 14:36,506
12/13/18 14:36,502
12/13/18 14:36,505
12/13/18 14:36,502
12/13/18 14:36,502
12/13/18 14:36,506
12/13/18 14:36,504
12/13/18 14:36,507
12/13/18 14:36,505
12/13/18 14:36,507
12/13/18 14:36,508
12/13/18 14:36,508
12/13/18 14:36,510
12/13/18 14:36,510
12/13/18 14:36,509
12/13/18 14:36,510
12/13/18 14:36,511
12/13/18 14:36,513
12/13/18 14:36,511
12/13/18 14:36,511
12/13/18 14:36,510
12/13/18 14:36,510
12/13/18 14:36,510
12/13/18 14:36,508
12/13/18 14:36,509
12/13/18 14:36,510
12/13/18 14:36,507
12/13/18 14:36,509
12/13/18 14:36,508
12/13/18 14:36,508
12/13/18 14:36,508
12/13/18 14:36,507
12/13/18 14:36,508
12/13/18 14:36,507
12/13/18 14:36,506
12/13/18 14:36,507
12/13/18 14:36,506
12/13/18 14:36,509
12/13/18 14:36,507
12/13/18 14:36,507
12/13/18 14:36,507
12/13/18 14:36,506
12/13/18 14:36,508
12/13/18 14:36,506
12/13/18 14:36,507
12/13/18 14:36,507
12/13/18 14:36,507
12/13/18 14:36,521
12/13/18 14:36,509
12/13/18 14:36,510
12/13/18 14:36,509
12/13/18 14:36,507
12/13/18 14:36,505
12/13/18 14:36,505
12/13/18 14:36,503
12/13/18 14:36,501
12/13/18 14:36,502
12/13/18 14:36,504
12/13/18 14:36,503
12/13/18 14:36,504
12/13/18 14:36,507
12/13/18 14:36,507
12/13/18 14:36,507
12/13/18 14:36,509
12/13/18 14:36,510
12/13/18 14:36,509
12/13/18 14:36,510
12/13/18 14:36,513
12/13/18 14:36,510
12/13/18 14:36,512
12/13/18 14:36,509
12/13/18 14:36,511
12/13/18 14:36,512
12/13/18 14:36,509
12/13/18 14:36,514
12/13/18 14:36,509
12/13/18 14:36,509
12/13/18 14:36,509
12/13/18 14:36,509
12/13/18 14:36,509
12/13/18 14:36,507
12/13/18 14:36,507
12/13/18 14:36,509
12/13/18 14:36,507
12/13/18 14:36,508
12/13/18 14:36,507
12/13/18 14:36,508
12/13/18 14:36,506
12/13/18 14:36,508
12/13/18 14:36,507
12/13/18 14:36,508
12/13/18 14:36,508
12/13/18 14:36,507
12/13/18 14:36,507
12/13/18 14:36,508
12/13/18 14:36,505
12/13/18 14:36,508
12/13/18 14:36,508
12/13/18 14:36,506
12/13/18 14:36,506
12/13/18 14:36,482
12/13/18 14:36,523
12/13/18 14:36,524
12/13/18 14:36,515
12/13/18 14:36,512
12/13/18 14:36,509
12/13/18 14:36,509
12/13/18 14:36,504
12/13/18 14:36,502
12/13/18 14:36,504
12/13/18 14:36,501
12/13/18 14:36,503
12/13/18 14:36,504
12/13/18 14:36,505
12/13/18 14:36,506
12/13/18 14:36,506
12/13/18 14:36,508
12/13/18 14:36,507
12/13/18 14:36,508
12/13/18 14:36,509
12/13/18 14:36,508
12/13/18 14:36,511
12/13/18 14:36,513
12/13/18 14:36,511
12/13/18 14:36,511
12/13/18 14:36,511
12/13/18 14:36,510
12/13/18 14:36,510
12/13/18 14:36,509
12/13/18 14:36,509
12/13/18 14:36,509
12/13/18 14:36,511
12/13/18 14:36,508
12/13/18 14:36,509
12/13/18 14:36,509
12/13/18 14:36,506
12/13/18 14:36,507
12/13/18 14:36,507
12/13/18 14:36,507
12/13/18 14:36,508
12/13/18 14:36,506
12/13/18 14:36,507
12/13/18 14:36,507
12/13/18 14:36,507
12/13/18 14:36,508
12/13/18 14:36,509
12/13/18 14:36,508
12/13/18 14:36,506
12/13/18 14:36,510
12/13/18 14:36,507
12/13/18 14:36,508
12/13/18 14:36,509
12/13/18 14:36,504
12/13/18 14:36,507
12/13/18 14:36,520
12/13/18 14:36,510
12/13/18 14:36,511
12/13/18 14:36,509
12/13/18 14:36,507
12/13/18 14:36,507
12/13/18 14:36,502
12/13/18 14:36,499
12/13/18 14:36,500
12/13/18 14:36,500
12/13/18 14:36,502
12/13/18 14:36,504
12/13/18 14:36,505
12/13/18 14:36,507
12/13/18 14:36,508
12/13/18 14:36,510
12/13/18 14:36,510
12/13/18 14:36,510
12/13/18 14:36,509
12/13/18 14:36,513
12/13/18 14:36,511
12/13/18 14:36,512
12/13/18 14:36,511
12/13/18 14:36,509
12/13/18 14:36,510
12/13/18 14:36,510
12/13/18 14:36,509
12/13/18 14:36,510
12/13/18 14:36,509
12/13/18 14:36,508
12/13/18 14:36,510
12/13/18 14:36,510
12/13/18 14:36,509
12/13/18 14:36,508
12/13/18 14:36,509
12/13/18 14:36,507
12/13/18 14:36,508
12/13/18 14:36,507
12/13/18 14:36,506
12/13/18 14:36,506
12/13/18 14:36,507
12/13/18 14:36,506
12/13/18 14:36,507
12/13/18 14:36,506
12/13/18 14:36,507
12/13/18 14:36,507
12/13/18 14:36,507
12/13/18 14:36,509
12/13/18 14:36,507
12/13/18 14:36,508
12/13/18 14:36,507
12/13/18 14:36,505
12/13/18 14:36,523
12/13/18 14:36,516
12/13/18 14:36,513
12/13/18 14:36,509
12/13/18 14:36,508
12/13/18 14:36,506
12/13/18 14:36,503
12/13/18 14:36,503
12/13/18 14:36,500
12/13/18 14:36,501
12/13/18 14:36,502
12/13/18 14:36,504
12/13/18 14:36,506
12/13/18 14:36,506
12/13/18 14:36,507
12/13/18 14:36,510
12/13/18 14:36,510
12/13/18 14:36,509
12/13/18 14:36,508
12/13/18 14:36,512
12/13/18 14:36,509
12/13/18 14:36,512
12/13/18 14:36,511
12/13/18 14:36,509
12/13/18 14:36,511
12/13/18 14:36,510
12/13/18 14:36,510
12/13/18 14:36,510
12/13/18 14:36,508
12/13/18 14:36,509
12/13/18 14:36,509
12/13/18 14:36,509
12/13/18 14:36,507
12/13/18 14:36,508
12/13/18 14:36,510
12/13/18 14:36,509
12/13/18 14:36,507
12/13/18 14:36,506
12/13/18 14:36,506
12/13/18 14:36,508
12/13/18 14:36,507
12/13/18 14:36,508
12/13/18 14:36,508
12/13/18 14:36,504
12/13/18 14:36,507
12/13/18 14:36,508
12/13/18 14:36,509
12/13/18 14:36,508
12/13/18 14:36,508
12/13/18 14:36,508
12/13/18 14:36,507
12/13/18 14:36,506
12/13/18 14:36,510
12/13/18 14:36,503
12/13/18 14:36,523
12/13/18 14:36,516
12/13/18 14:36,513
12/13/18 14:36,509
12/13/18 14:36,508
12/13/18 14:36,508
12/13/18 14:36,503
12/13/18 14:36,501
12/13/18 14:36,501
12/13/18 14:36,502
12/13/18 14:36,503
12/13/18 14:36,504
12/13/18 14:36,506
12/13/18 14:36,505
12/13/18 14:36,507
12/13/18 14:36,508
12/13/18 14:36,509
12/13/18 14:36,510
12/13/18 14:36,510
12/13/18 14:36,509
12/13/18 14:36,512
12/13/18 14:36,511
12/13/18 14:36,510
12/13/18 14:36,511
12/13/18 14:36,509
12/13/18 14:36,510
12/13/18 14:36,509
12/13/18 14:36,511
12/13/18 14:36,509
12/13/18 14:36,509
12/13/18 14:36,510
12/13/18 14:36,509
12/13/18 14:36,509
12/13/18 14:36,508
12/13/18 14:36,508
12/13/18 14:36,506
12/13/18 14:36,506
12/13/18 14:36,508
12/13/18 14:36,507
12/13/18 14:36,507
12/13/18 14:36,506
12/13/18 14:36,507
12/13/18 14:36,508
12/13/18 14:36,508
12/13/18 14:36,509
12/13/18 14:36,508
12/13/18 14:36,507
12/13/18 14:36,509
12/13/18 14:36,508
12/13/18 14:36,509
12/13/18 14:36,507
12/13/18 14:36,496
12/13/18 14:36,522
12/13/18 14:36,514
12/13/18 14:36,510
12/13/18 14:36,510
12/13/18 14:36,507
12/13/18 14:36,506
12/13/18 14:36,503
12/13/18 14:36,501
12/13/18 14:36,500
12/13/18 14:36,503
12/13/18 14:36,505
12/13/18 14:36,504
12/13/18 14:36,506
12/13/18 14:36,508
12/13/18 14:36,507
12/13/18 14:36,509
12/13/18 14:36,507
12/13/18 14:36,510
12/13/18 14:36,510
12/13/18 14:36,511
12/13/18 14:36,510
12/13/18 14:36,510
12/13/18 14:36,511
12/13/18 14:36,510
12/13/18 14:36,509
12/13/18 14:36,513
12/13/18 14:36,509
12/13/18 14:36,511
12/13/18 14:36,508
12/13/18 14:36,509
12/13/18 14:36,509
12/13/18 14:36,509
12/13/18 14:36,510
12/13/18 14:36,510
12/13/18 14:36,508
12/13/18 14:36,508
12/13/18 14:36,505
12/13/18 14:36,507
12/13/18 14:36,507
12/13/18 14:36,506
12/13/18 14:36,508
12/13/18 14:36,507
12/13/18 14:36,506
12/13/18 14:36,507
12/13/18 14:36,509
12/13/18 14:36,510
12/13/18 14:36,507
12/13/18 14:36,508
12/13/18 14:36,507
12/13/18 14:36,509
12/13/18 14:36,507
12/13/18 14:36,505
12/13/18 14:36,505
12/13/18 14:36,521
12/13/18 14:36,513
12/13/18 14:36,512
12/13/18 14:36,507
12/13/18 14:36,503
12/13/18 14:36,503
12/13/18 14:36,502
12/13/18 14:45,505
12/13/18 14:45,504
12/13/18 14:45,514
12/13/18 14:45,517
12/13/18 14:45,514
12/13/18 14:45,509
12/13/18 14:45,507
12/13/18 14:45,507
12/13/18 14:45,508
12/13/18 14:45,503
12/13/18 14:45,502
12/13/18 14:45,501
12/13/18 14:45,502
12/13/18 14:45,503
12/13/18 14:45,503
12/13/18 14:45,504
12/13/18 14:45,506
12/13/18 14:45,508
12/13/18 14:45,508
12/13/18 14:45,508
12/13/18 14:45,510
12/13/18 14:45,508
12/13/18 14:45,509
12/13/18 14:45,510
12/13/18 14:45,509
12/13/18 14:45,512
12/13/18 14:45,510
12/13/18 14:45,510
12/13/18 14:45,510
12/13/18 14:45,509
12/13/18 14:45,511
12/13/18 14:45,510
12/13/18 14:45,509
12/13/18 14:45,511
12/13/18 14:45,508
12/13/18 14:45,508
12/13/18 14:45,506
12/13/18 14:45,509
12/13/18 14:45,510
12/13/18 14:45,507
12/13/18 14:45,508
12/13/18 14:45,506
12/13/18 14:45,507
12/13/18 14:45,507
12/13/18 14:45,507
12/13/18 14:45,508
12/13/18 14:45,509
12/13/18 14:45,507
12/13/18 14:45,507
12/13/18 14:45,509
12/13/18 14:45,509
12/13/18 14:45,507
12/13/18 14:45,508
12/13/18 14:45,509
12/13/18 14:45,505
12/13/18 14:45,507
12/13/18 14:45,517
12/13/18 14:45,510
12/13/18 14:45,513
12/13/18 14:45,509
12/13/18 14:45,507
12/13/18 14:45,503
12/13/18 14:45,503
12/13/18 14:45,503
12/13/18 14:45,501
12/13/18 14:45,501
12/13/18 14:45,503
12/13/18 14:45,505
12/13/18 14:45,506
12/13/18 14:45,506
12/13/18 14:45,507
12/13/18 14:45,507
12/13/18 14:45,509
12/13/18 14:45,510
12/13/18 14:45,511
12/13/18 14:45,511
12/13/18 14:45,512
12/13/18 14:45,513
12/13/18 14:45,510
12/13/18 14:45,510
12/13/18 14:45,513
12/13/18 14:45,510
12/13/18 14:45,510
12/13/18 14:45,510
12/13/18 14:45,511
12/13/18 14:45,510
12/13/18 14:45,508
12/13/18 14:45,508
12/13/18 14:45,507
12/13/18 14:45,509
12/13/18 14:45,509
12/13/18 14:45,508
12/13/18 14:45,507
12/13/18 14:45,506
12/13/18 14:45,507
12/13/18 14:45,508
12/13/18 14:45,506
12/13/18 14:45,506
12/13/18 14:45,507
12/13/18 14:45,508
12/13/18 14:45,507
12/13/18 14:45,508
12/13/18 14:45,509
12/13/18 14:45,507
12/13/18 14:45,507
12/13/18 14:45,509
12/13/18 14:45,506
12/13/18 14:45,509
12/13/18 14:45,513
12/13/18 14:45,518
12/13/18 14:45,513
12/13/18 14:45,514
12/13/18 14:45,510
12/13/18 14:45,506
12/13/18 14:45,503
12/13/18 14:45,501
12/13/18 14:45,500
12/13/18 14:45,502
12/13/18 14:45,503
12/13/18 14:45,505
12/13/18 14:45,505
12/13/18 14:45,507
12/13/18 14:45,506
12/13/18 14:45,506
12/13/18 14:45,509
12/13/18 14:45,508
12/13/18 14:45,509
12/13/18 14:45,511
12/13/18 14:45,509
12/13/18 14:45,513
12/13/18 14:45,510
12/13/18 14:45,512
12/13/18 14:45,510
12/13/18 14:45,510
12/13/18 14:45,508
12/13/18 14:45,509
12/13/18 14:45,510
12/13/18 14:45,511
12/13/18 14:45,509
12/13/18 14:45,510
12/13/18 14:45,508
12/13/18 14:45,508
12/13/18 14:45,508
12/13/18 14:45,507
12/13/18 14:45,508
12/13/18 14:45,506
12/13/18 14:45,506
12/13/18 14:45,507
12/13/18 14:45,507
12/13/18 14:45,509
12/13/18 14:45,507
12/13/18 14:45,508
12/13/18 14:45,507
12/13/18 14:45,508
12/13/18 14:45,508
12/13/18 14:45,507
12/13/18 14:45,507
12/13/18 14:45,509
12/13/18 14:45,507
12/13/18 14:45,506
12/13/18 14:45,497
12/13/18 14:45,519
12/13/18 14:45,517
12/13/18 14:45,511
12/13/18 14:45,511
12/13/18 14:45,507
12/13/18 14:45,507
12/13/18 14:45,506
12/13/18 14:45,503
12/13/18 14:45,505
12/13/18 14:45,502
12/13/18 14:45,503
12/13/18 14:45,506
12/13/18 14:45,505
12/13/18 14:45,506
12/13/18 14:45,506
12/13/18 14:45,507
12/13/18 14:45,508
12/13/18 14:45,509
12/13/18 14:45,509
12/13/18 14:45,509
12/13/18 14:45,511
12/13/18 14:45,508
12/13/18 14:45,510
12/13/18 14:45,511
12/13/18 14:45,511
12/13/18 14:45,511
12/13/18 14:45,509
12/13/18 14:45,508
12/13/18 14:45,508
12/13/18 14:45,509
12/13/18 14:45,509
12/13/18 14:45,509
12/13/18 14:45,509
12/13/18 14:45,511
12/13/18 14:45,509
12/13/18 14:45,509
12/13/18 14:45,506
12/13/18 14:45,506
12/13/18 14:45,507
12/13/18 14:45,506
12/13/18 14:45,508
12/13/18 14:45,508
12/13/18 14:45,507
12/13/18 14:45,508
12/13/18 14:45,507
12/13/18 14:45,507
12/13/18 14:45,508
12/13/18 14:45,508
12/13/18 14:45,508
12/13/18 14:45,507
12/13/18 14:45,507
12/13/18 14:45,505
12/13/18 14:45,506
12/13/18 14:45,519
12/13/18 14:45,511
12/13/18 14:45,510
12/13/18 14:45,509
12/13/18 14:45,507
12/13/18 14:45,505
12/13/18 14:45,501
12/13/18 14:45,502
12/13/18 14:45,500
12/13/18 14:45,501
12/13/18 14:45,504
12/13/18 14:45,504
12/13/18 14:45,505
12/13/18 14:45,507
12/13/18 14:45,508
12/13/18 14:45,508
12/13/18 14:45,508
12/13/18 14:45,510
12/13/18 14:45,509
12/13/18 14:45,511
12/13/18 14:45,510
12/13/18 14:45,510
12/13/18 14:45,513
12/13/18 14:45,510
12/13/18 14:45,513
12/13/18 14:45,511
12/13/18 14:45,510
12/13/18 14:45,510
12/13/18 14:45,509
12/13/18 14:45,509
12/13/18 14:45,511
12/13/18 14:45,509
12/13/18 14:45,509
12/13/18 14:45,509
12/13/18 14:45,508
12/13/18 14:45,507
12/13/18 14:45,507
12/13/18 14:45,507
12/13/18 14:45,506
12/13/18 14:45,507
12/13/18 14:45,508
12/13/18 14:45,508
12/13/18 14:45,506
12/13/18 14:45,508
12/13/18 14:45,509
12/13/18 14:45,507
12/13/18 14:45,508
12/13/18 14:45,508
12/13/18 14:45,506
12/13/18 14:45,507
12/13/18 14:45,507
12/13/18 14:45,508
12/13/18 14:45,510
12/13/18 14:45,515
12/13/18 14:45,517
12/13/18 14:45,511
12/13/18 14:45,508
12/13/18 14:45,511
12/13/18 14:45,506
12/13/18 14:45,507
12/13/18 14:45,503
12/13/18 14:45,502
12/13/18 14:45,502
12/13/18 14:45,503
12/13/18 14:45,505
12/13/18 14:45,504
12/13/18 14:45,506
12/13/18 14:45,506
12/13/18 14:45,506
12/13/18 14:45,508
12/13/18 14:45,508
12/13/18 14:45,511
12/13/18 14:45,512
12/13/18 14:45,512
12/13/18 14:45,511
12/13/18 14:45,510
12/13/18 14:45,510
12/13/18 14:45,510
12/13/18 14:45,510
12/13/18 14:45,510
12/13/18 14:45,510
12/13/18 14:45,510
12/13/18 14:45,509
12/13/18 14:45,509
12/13/18 14:45,510
12/13/18 14:45,508
12/13/18 14:45,510
12/13/18 14:45,507
12/13/18 14:45,508
12/13/18 14:45,508
12/13/18 14:45,508
12/13/18 14:45,508
12/13/18 14:45,506
12/13/18 14:45,507
12/13/18 14:45,507
12/13/18 14:45,506
12/13/18 14:45,508
12/13/18 14:45,508
12/13/18 14:45,508
12/13/18 14:45,509
12/13/18 14:45,506
12/13/18 14:45,508
12/13/18 14:45,509
12/13/18 14:45,508
12/13/18 14:45,506
12/13/18 14:45,503
12/13/18 14:45,521
12/13/18 14:45,511
12/13/18 14:45,508
12/13/18 14:45,510
12/13/18 14:45,506
12/13/18 14:45,509
12/13/18 14:45,504
12/13/18 14:45,499
12/13/18 14:45,501
12/13/18 14:45,502
12/13/18 14:45,502
12/13/18 14:45,501
12/13/18 14:45,504
12/13/18 14:45,507
12/13/18 14:45,506
12/13/18 14:45,508
12/13/18 14:45,509
12/13/18 14:45,511
12/13/18 14:45,511
12/13/18 14:45,511
12/13/18 14:45,513
12/13/18 14:45,511
12/13/18 14:45,511
12/13/18 14:45,512
12/13/18 14:45,511
12/13/18 14:45,512
12/13/18 14:45,509
12/13/18 14:45,509
12/13/18 14:45,509
12/13/18 14:45,509
12/13/18 14:45,509
12/13/18 14:45,508
12/13/18 14:45,509
12/13/18 14:45,509
12/13/18 14:45,507
12/13/18 14:45,509
12/13/18 14:45,509
12/13/18 14:45,507
12/13/18 14:45,507
12/13/18 14:45,507
12/13/18 14:45,508
12/13/18 14:45,507
12/13/18 14:45,507
12/13/18 14:45,508
12/13/18 14:45,507
12/13/18 14:45,509
12/13/18 14:45,506
12/13/18 14:45,508
12/13/18 14:45,505
12/13/18 14:45,507
12/13/18 14:45,508
12/13/18 14:45,506
12/13/18 14:45,504
12/13/18 14:45,523
12/13/18 14:45,515
12/13/18 14:45,513
12/13/18 14:45,509
12/13/18 14:45,508
12/13/18 14:45,507
12/13/18 14:45,503
12/13/18 14:45,501
12/13/18 14:45,501
12/13/18 14:45,501
12/13/18 14:45,503
12/13/18 14:45,505
12/13/18 14:45,506
12/13/18 14:45,505
12/13/18 14:45,508
12/13/18 14:45,507
12/13/18 14:45,509
12/13/18 14:45,511
12/13/18 14:45,511
12/13/18 14:45,512
12/13/18 14:45,509
12/13/18 14:45,511
12/13/18 14:45,511
12/13/18 14:45,510
12/13/18 14:45,511
12/13/18 14:45,510
12/13/18 14:45,509
12/13/18 14:45,507
12/13/18 14:45,508
12/13/18 14:45,512
12/13/18 14:45,509
12/13/18 14:45,508
12/13/18 14:45,510
12/13/18 14:45,508
12/13/18 14:45,509
12/13/18 14:45,508
12/13/18 14:45,507
12/13/18 14:45,507
12/13/18 14:45,506
12/13/18 14:45,508
12/13/18 14:45,507
12/13/18 14:45,507
12/13/18 14:45,509
12/13/18 14:45,508
12/13/18 14:45,508
12/13/18 14:45,508
12/13/18 14:45,506
12/13/18 14:45,508
12/13/18 14:45,508
12/13/18 14:45,508
12/13/18 14:45,507
12/13/18 14:45,508
12/13/18 14:45,503
12/13/18 14:45,526
12/13/18 14:45,512
12/13/18 14:45,510
12/13/18 14:45,509
12/13/18 14:45,505
12/13/18 14:45,506
12/13/18 14:45,505
12/13/18 14:45,501
12/13/18 14:45,502
12/13/18 14:45,502
12/13/18 14:45,502
12/13/18 14:45,503
12/13/18 14:45,503
12/13/18 14:45,506
12/13/18 14:45,506
12/13/18 14:45,508
12/13/18 14:45,508
12/13/18 14:45,509
12/13/18 14:45,511
12/13/18 14:45,511
12/13/18 14:45,510
12/13/18 14:45,511
12/13/18 14:45,511
12/13/18 14:45,512
12/13/18 14:45,512
12/13/18 14:45,511
12/13/18 14:45,511
12/13/18 14:45,510
12/13/18 14:45,510
12/13/18 14:45,509
12/13/18 14:45,509
12/13/18 14:45,511
12/13/18 14:45,508
12/13/18 14:45,509
12/13/18 14:45,508
12/13/18 14:45,509
12/13/18 14:45,509
12/13/18 14:45,506
12/13/18 14:45,507
12/13/18 14:45,507
12/13/18 14:45,509
12/13/18 14:45,508
12/13/18 14:45,506
12/13/18 14:45,509
12/13/18 14:45,506
12/13/18 14:45,508
12/13/18 14:45,508
12/13/18 14:45,509
12/13/18 14:45,507
12/13/18 14:45,505
12/13/18 14:45,507
12/13/18 14:45,508
12/13/18 14:45,509
12/13/18 14:45,522
12/13/18 14:45,511
12/13/18 14:45,511
12/13/18 14:45,510
12/13/18 14:45,506
12/13/18 14:45,505
12/13/18 14:45,509
12/13/18 14:45,505
12/13/18 14:45,501
12/13/18 14:45,500
12/13/18 14:45,503
12/13/18 14:45,501
12/13/18 14:45,505
12/13/18 14:45,506
12/13/18 14:45,507
12/13/18 14:45,509
12/13/18 14:45,507
12/13/18 14:45,509
12/13/18 14:45,510
12/13/18 14:45,510
12/13/18 14:45,511
12/13/18 14:45,510
12/13/18 14:45,509
12/13/18 14:45,510
12/13/18 14:45,512
12/13/18 14:45,509
12/13/18 14:45,510
12/13/18 14:45,511
12/13/18 14:45,510
12/13/18 14:45,509
12/13/18 14:45,508
12/13/18 14:45,509
12/13/18 14:45,511
12/13/18 14:45,507
12/13/18 14:45,508
12/13/18 14:45,507
12/13/18 14:45,508
12/13/18 14:45,508
12/13/18 14:45,507
12/13/18 14:45,506
12/13/18 14:45,509
12/13/18 14:45,508
12/13/18 14:45,509
12/13/18 14:45,507
12/13/18 14:45,507
12/13/18 14:45,507
12/13/18 14:45,507
12/13/18 14:45,508
12/13/18 14:45,507
12/13/18 14:45,507
12/13/18 14:45,509
12/13/18 14:45,508
12/13/18 14:45,505
12/13/18 14:45,485
12/13/18 14:45,525
12/13/18 14:45,518
12/13/18 14:45,513
12/13/18 14:45,511
12/13/18 14:45,506
12/13/18 14:45,508
12/13/18 14:45,506
12/13/18 14:45,502
12/13/18 14:45,499
12/13/18 14:45,500
12/13/18 14:45,503
12/13/18 14:45,504
12/13/18 14:45,507
12/13/18 14:45,504
12/13/18 14:45,507
12/13/18 14:45,508
12/13/18 14:45,509
12/13/18 14:45,509
12/13/18 14:45,511
12/13/18 14:45,509
12/13/18 14:45,512
12/13/18 14:45,510
12/13/18 14:45,510
12/13/18 14:45,515
12/13/18 14:45,511
12/13/18 14:45,511
12/13/18 14:45,510
12/13/18 14:45,509
12/13/18 14:45,509
12/13/18 14:45,509
12/13/18 14:45,508
12/13/18 14:45,508
12/13/18 14:45,509
12/13/18 14:45,509
12/13/18 14:45,507
12/13/18 14:45,507
12/13/18 14:45,507
12/13/18 14:45,508
12/13/18 14:45,508
12/13/18 14:45,507
12/13/18 14:45,507
12/13/18 14:45,507
12/13/18 14:45,508
12/13/18 14:45,508
12/13/18 14:45,508
12/13/18 14:45,507
12/13/18 14:45,505
12/13/18 14:45,507
12/13/18 14:45,507
12/13/18 14:45,507
12/13/18 14:45,508
12/13/18 14:45,509
12/13/18 14:45,506
12/13/18 14:45,516
12/13/18 14:45,514
12/13/18 14:45,512
12/13/18 14:45,509
12/13/18 14:45,508
12/13/18 14:45,506
12/13/18 14:45,503
12/13/18 14:45,504
12/13/18 14:45,500
12/13/18 14:45,502
12/13/18 14:45,501
12/13/18 14:45,505
12/13/18 14:45,507
12/13/18 14:45,504
12/13/18 14:54,508
12/13/18 14:54,508
12/13/18 14:54,505
12/13/18 14:54,505
12/13/18 14:54,505
12/13/18 14:54,505
12/13/18 14:54,507
12/13/18 14:54,507
12/13/18 14:54,507
12/13/18 14:54,508
12/13/18 14:54,507
12/13/18 14:54,508
12/13/18 14:54,509
12/13/18 14:54,505
12/13/18 14:54,509
12/13/18 14:54,508
12/13/18 14:54,507
12/13/18 14:54,507
12/13/18 14:54,502
12/13/18 14:54,516
12/13/18 14:54,517
12/13/18 14:54,513
12/13/18 14:54,509
12/13/18 14:54,507
12/13/18 14:54,509
12/13/18 14:54,506
12/13/18 14:54,501
12/13/18 14:54,500
12/13/18 14:54,499
12/13/18 14:54,503
12/13/18 14:54,505
12/13/18 14:54,505
12/13/18 14:54,507
12/13/18 14:54,507
12/13/18 14:54,508
12/13/18 14:54,510
12/13/18 14:54,509
12/13/18 14:54,511
12/13/18 14:54,510
12/13/18 14:54,513
12/13/18 14:54,512
12/13/18 14:54,511
12/13/18 14:54,512
12/13/18 14:54,510
12/13/18 14:54,511
12/13/18 14:54,510
12/13/18 14:54,510
12/13/18 14:54,509
12/13/18 14:54,510
12/13/18 14:54,510
12/13/18 14:54,508
12/13/18 14:54,510
12/13/18 14:54,508
12/13/18 14:54,506
12/13/18 14:54,509
12/13/18 14:54,508
12/13/18 14:54,506
12/13/18 14:54,507
12/13/18 14:54,505
12/13/18 14:54,507
12/13/18 14:54,507
12/13/18 14:54,507
12/13/18 14:54,507
12/13/18 14:54,507
12/13/18 14:54,507
12/13/18 14:54,507
12/13/18 14:54,509
12/13/18 14:54,509
12/13/18 14:54,507
12/13/18 14:54,508
12/13/18 14:54,502
12/13/18 14:54,524
12/13/18 14:54,513
12/13/18 14:54,512
12/13/18 14:54,511
12/13/18 14:54,505
12/13/18 14:54,503
12/13/18 14:54,504
12/13/18 14:54,502
12/13/18 14:54,503
12/13/18 14:54,501
12/13/18 14:54,502
12/13/18 14:54,503
12/13/18 14:54,504
12/13/18 14:54,505
12/13/18 14:54,508
12/13/18 14:54,509
12/13/18 14:54,508
12/13/18 14:54,510
12/13/18 14:54,509
12/13/18 14:54,510
12/13/18 14:54,512
12/13/18 14:54,511
12/13/18 14:54,511
12/13/18 14:54,511
12/13/18 14:54,510
12/13/18 14:54,510
12/13/18 14:54,509
12/13/18 14:54,510
12/13/18 14:54,510
12/13/18 14:54,509
12/13/18 14:54,510
12/13/18 14:54,510
12/13/18 14:54,510
12/13/18 14:54,507
12/13/18 14:54,507
12/13/18 14:54,509
12/13/18 14:54,507
12/13/18 14:54,508
12/13/18 14:54,505
12/13/18 14:54,507
12/13/18 14:54,508
12/13/18 14:54,507
12/13/18 14:54,506
12/13/18 14:54,509
12/13/18 14:54,508
12/13/18 14:54,508
12/13/18 14:54,509
12/13/18 14:54,507
12/13/18 14:54,507
12/13/18 14:54,506
12/13/18 14:54,508
12/13/18 14:54,507
12/13/18 14:54,499
12/13/18 14:54,523
12/13/18 14:54,514
12/13/18 14:54,511
12/13/18 14:54,510
12/13/18 14:54,509
12/13/18 14:54,504
12/13/18 14:54,506
12/13/18 14:54,504
12/13/18 14:54,499
12/13/18 14:54,500
12/13/18 14:54,501
12/13/18 14:54,502
12/13/18 14:54,504
12/13/18 14:54,505
12/13/18 14:54,508
12/13/18 14:54,508
12/13/18 14:54,510
12/13/18 14:54,511
12/13/18 14:54,509
12/13/18 14:54,511
12/13/18 14:54,511
12/13/18 14:54,511
12/13/18 14:54,513
12/13/18 14:54,509
12/13/18 14:54,513
12/13/18 14:54,510
12/13/18 14:54,509
12/13/18 14:54,510
12/13/18 14:54,509
12/13/18 14:54,513
12/13/18 14:54,511
12/13/18 14:54,509
12/13/18 14:54,507
12/13/18 14:54,508
12/13/18 14:54,509
12/13/18 14:54,508
12/13/18 14:54,506
12/13/18 14:54,507
12/13/18 14:54,507
12/13/18 14:54,507
12/13/18 14:54,506
12/13/18 14:54,509
12/13/18 14:54,507
12/13/18 14:54,507
12/13/18 14:54,509
12/13/18 14:54,507
12/13/18 14:54,509
12/13/18 14:54,507
12/13/18 14:54,507
12/13/18 14:54,508
12/13/18 14:54,509
12/13/18 14:54,508
12/13/18 14:54,512
12/13/18 14:54,486
12/13/18 14:54,528
12/13/18 14:54,518
12/13/18 14:54,515
12/13/18 14:54,509
12/13/18 14:54,508
12/13/18 14:54,507
12/13/18 14:54,501
12/13/18 14:54,501
12/13/18 14:54,501
12/13/18 14:54,502
12/13/18 14:54,504
12/13/18 14:54,504
12/13/18 14:54,506
12/13/18 14:54,505
12/13/18 14:54,507
12/13/18 14:54,509
12/13/18 14:54,508
12/13/18 14:54,510
12/13/18 14:54,511
12/13/18 14:54,511
12/13/18 14:54,511
12/13/18 14:54,511
12/13/18 14:54,511
12/13/18 14:54,511
12/13/18 14:54,510
12/13/18 14:54,510
12/13/18 14:54,510
12/13/18 14:54,510
12/13/18 14:54,508
12/13/18 14:54,508
12/13/18 14:54,508
12/13/18 14:54,508
12/13/18 14:54,509
12/13/18 14:54,508
12/13/18 14:54,509
12/13/18 14:54,507
12/13/18 14:54,506
12/13/18 14:54,506
12/13/18 14:54,506
12/13/18 14:54,507
12/13/18 14:54,508
12/13/18 14:54,508
12/13/18 14:54,508
12/13/18 14:54,506
12/13/18 14:54,508
12/13/18 14:54,508
12/13/18 14:54,507
12/13/18 14:54,508
12/13/18 14:54,507
12/13/18 14:54,507
12/13/18 14:54,508
12/13/18 14:54,527
12/13/18 14:54,509
12/13/18 14:54,509
12/13/18 14:54,509
12/13/18 14:54,505
12/13/18 14:54,502
12/13/18 14:54,503
12/13/18 14:54,503
12/13/18 14:54,503
12/13/18 14:54,498
12/13/18 14:54,503
12/13/18 14:54,503
12/13/18 14:54,503
12/13/18 14:54,507
12/13/18 14:54,508
12/13/18 14:54,510
12/13/18 14:54,510
12/13/18 14:54,510
12/13/18 14:54,511
12/13/18 14:54,512
12/13/18 14:54,513
12/13/18 14:54,512
12/13/18 14:54,511
12/13/18 14:54,513
12/13/18 14:54,510
12/13/18 14:54,511
12/13/18 14:54,509
12/13/18 14:54,509
12/13/18 14:54,511
12/13/18 14:54,510
12/13/18 14:54,510
12/13/18 14:54,507
12/13/18 14:54,508
12/13/18 14:54,507
12/13/18 14:54,508
12/13/18 14:54,510
12/13/18 14:54,508
12/13/18 14:54,507
12/13/18 14:54,506
12/13/18 14:54,506
12/13/18 14:54,507
12/13/18 14:54,509
12/13/18 14:54,505
12/13/18 14:54,507
12/13/18 14:54,507
12/13/18 14:54,508
12/13/18 14:54,509
12/13/18 14:54,509
12/13/18 14:54,509
12/13/18 14:54,507
12/13/18 14:54,508
12/13/18 14:54,505
12/13/18 14:54,495
12/13/18 14:54,522
12/13/18 14:54,513
12/13/18 14:54,510
12/13/18 14:54,509
12/13/18 14:54,508
12/13/18 14:54,505
12/13/18 14:54,504
12/13/18 14:54,502
12/13/18 14:54,501
12/13/18 14:54,502
12/13/18 14:54,504
12/13/18 14:54,504
12/13/18 14:54,506
12/13/18 14:54,506
12/13/18 14:54,505
12/13/18 14:54,509
12/13/18 14:54,510
12/13/18 14:54,511
12/13/18 14:54,511
12/13/18 14:54,510
12/13/18 14:54,513
12/13/18 14:54,510
12/13/18 14:54,510
12/13/18 14:54,511
12/13/18 14:54,511
12/13/18 14:54,510
12/13/18 14:54,510
12/13/18 14:54,510
12/13/18 14:54,510
12/13/18 14:54,508
12/13/18 14:54,509
12/13/18 14:54,509
12/13/18 14:54,509
12/13/18 14:54,508
12/13/18 14:54,507
12/13/18 14:54,507
12/13/18 14:54,506
12/13/18 14:54,508
12/13/18 14:54,507
12/13/18 14:54,508
12/13/18 14:54,508
12/13/18 14:54,506
12/13/18 14:54,507
12/13/18 14:54,507
12/13/18 14:54,507
12/13/18 14:54,507
12/13/18 14:54,505
12/13/18 14:54,509
12/13/18 14:54,506
12/13/18 14:54,507
12/13/18 14:54,509
12/13/18 14:54,505
12/13/18 14:54,494
12/13/18 14:54,519
12/13/18 14:54,516
12/13/18 14:54,513
12/13/18 14:54,510
12/13/18 14:54,508
12/13/18 14:54,504
12/13/18 14:54,504
12/13/18 14:54,502
12/13/18 14:54,501
12/13/18 14:54,502
12/13/18 14:54,501
12/13/18 14:54,506
12/13/18 14:54,507
12/13/18 14:54,506
12/13/18 14:54,509
12/13/18 14:54,509
12/13/18 14:54,510
12/13/18 14:54,510
12/13/18 14:54,510
12/13/18 14:54,512
12/13/18 14:54,509
12/13/18 14:54,511
12/13/18 14:54,510
12/13/18 14:54,513
12/13/18 14:54,511
12/13/18 14:54,508
12/13/18 14:54,509
12/13/18 14:54,511
12/13/18 14:54,510
12/13/18 14:54,509
12/13/18 14:54,507
12/13/18 14:54,510
12/13/18 14:54,510
12/13/18 14:54,507
12/13/18 14:54,508
12/13/18 14:54,508
12/13/18 14:54,507
12/13/18 14:54,507
12/13/18 14:54,507
12/13/18 14:54,505
12/13/18 14:54,506
12/13/18 14:54,509
12/13/18 14:54,508
12/13/18 14:54,508
12/13/18 14:54,509
12/13/18 14:54,508
12/13/18 14:54,508
12/13/18 14:54,508
12/13/18 14:54,507
12/13/18 14:54,507
12/13/18 14:54,507
12/13/18 14:54,503
12/13/18 14:54,509
12/13/18 14:54,517
12/13/18 14:54,512
12/13/18 14:54,509
12/13/18 14:54,506
12/13/18 14:54,505
12/13/18 14:54,505
12/13/18 14:54,507
12/13/18 14:54,502
12/13/18 14:54,502
12/13/18 14:54,501
12/13/18 14:54,502
12/13/18 14:54,504
12/13/18 14:54,505
12/13/18 14:54,505
12/13/18 14:54,507
12/13/18 14:54,510
12/13/18 14:54,508
12/13/18 14:54,510
12/13/18 14:54,511
12/13/18 14:54,511
12/13/18 14:54,512
12/13/18 14:54,511
12/13/18 14:54,510
12/13/18 14:54,511
12/13/18 14:54,511
12/13/18 14:54,511
12/13/18 14:54,510
12/13/18 14:54,509
12/13/18 14:54,510
12/13/18 14:54,508
12/13/18 14:54,508
12/13/18 14:54,509
12/13/18 14:54,507
12/13/18 14:54,508
12/13/18 14:54,509
12/13/18 14:54,509
12/13/18 14:54,508
12/13/18 14:54,506
12/13/18 14:54,507
12/13/18 14:54,508
12/13/18 14:54,507
12/13/18 14:54,506
12/13/18 14:54,507
12/13/18 14:54,508
12/13/18 14:54,506
12/13/18 14:54,509
12/13/18 14:54,508
12/13/18 14:54,507
12/13/18 14:54,509
12/13/18 14:54,506
12/13/18 14:54,507
12/13/18 14:54,509
12/13/18 14:54,504
12/13/18 14:54,488
12/13/18 14:54,532
12/13/18 14:54,522
12/13/18 14:54,514
12/13/18 14:54,510
12/13/18 14:54,509
12/13/18 14:54,507
12/13/18 14:54,503
12/13/18 14:54,499
12/13/18 14:54,500
12/13/18 14:54,501
12/13/18 14:54,500
12/13/18 14:54,503
12/13/18 14:54,505
12/13/18 14:54,508
12/13/18 14:54,507
12/13/18 14:54,507
12/13/18 14:54,511
12/13/18 14:54,510
12/13/18 14:54,513
12/13/18 14:54,511
12/13/18 14:54,511
12/13/18 14:54,511
12/13/18 14:54,510
12/13/18 14:54,510
12/13/18 14:54,511
12/13/18 14:54,509
12/13/18 14:54,510
12/13/18 14:54,509
12/13/18 14:54,509
12/13/18 14:54,510
12/13/18 14:54,509
12/13/18 14:54,509
12/13/18 14:54,508
12/13/18 14:54,510
12/13/18 14:54,508
12/13/18 14:54,507
12/13/18 14:54,508
12/13/18 14:54,506
12/13/18 14:54,506
12/13/18 14:54,506
12/13/18 14:54,506
12/13/18 14:54,508
12/13/18 14:54,507
12/13/18 14:54,508
12/13/18 14:54,508
12/13/18 14:54,507
12/13/18 14:54,508
12/13/18 14:54,506
12/13/18 14:54,510
12/13/18 14:54,508
12/13/18 14:54,507
12/13/18 14:54,511
12/13/18 14:54,515
12/13/18 14:54,511
12/13/18 14:54,511
12/13/18 14:54,507
12/13/18 14:54,506
12/13/18 14:54,502
12/13/18 14:54,504
12/13/18 14:54,502
12/13/18 14:54,502
12/13/18 14:54,504
12/13/18 14:54,502
12/13/18 14:54,504
12/13/18 14:54,505
12/13/18 14:54,507
12/13/18 14:54,507
12/13/18 14:54,507
12/13/18 14:54,509
12/13/18 14:54,510
12/13/18 14:54,510
12/13/18 14:54,510
12/13/18 14:54,510
12/13/18 14:54,513
12/13/18 14:54,509
12/13/18 14:54,512
12/13/18 14:54,513
12/13/18 14:54,510
12/13/18 14:54,512
12/13/18 14:54,512
12/13/18 14:54,508
12/13/18 14:54,508
12/13/18 14:54,509
12/13/18 14:54,508
12/13/18 14:54,509
12/13/18 14:54,510
12/13/18 14:54,509
12/13/18 14:54,507
12/13/18 14:54,507
12/13/18 14:54,507
12/13/18 14:54,505
12/13/18 14:54,507
12/13/18 14:54,506
12/13/18 14:54,506
12/13/18 14:54,507
12/13/18 14:54,506
12/13/18 14:54,506
12/13/18 14:54,508
12/13/18 14:54,510
12/13/18 14:54,507
12/13/18 14:54,509
12/13/18 14:54,507
12/13/18 14:54,508
12/13/18 14:54,505
12/13/18 14:54,489
12/13/18 14:54,519
12/13/18 14:54,520
12/13/18 14:54,515
12/13/18 14:54,509
12/13/18 14:54,508
12/13/18 14:54,506
12/13/18 14:54,505
12/13/18 14:54,501
12/13/18 14:54,500
12/13/18 14:54,500
12/13/18 14:54,504
12/13/18 14:54,505
12/13/18 14:54,506
12/13/18 14:54,507
12/13/18 14:54,508
12/13/18 14:54,510
12/13/18 14:54,507
12/13/18 14:54,510
12/13/18 14:54,510
12/13/18 14:54,511
12/13/18 14:54,512
12/13/18 14:54,510
12/13/18 14:54,510
12/13/18 14:54,510
12/13/18 14:54,511
12/13/18 14:54,510
12/13/18 14:54,513
12/13/18 14:54,510
12/13/18 14:54,508
12/13/18 14:54,509
12/13/18 14:54,509
12/13/18 14:54,508
12/13/18 14:54,509
12/13/18 14:54,508
12/13/18 14:54,507
12/13/18 14:54,508
12/13/18 14:54,507
12/13/18 14:54,507
12/13/18 14:54,508
12/13/18 14:54,507
12/13/18 14:54,508
12/13/18 14:54,507
12/13/18 14:54,508
12/13/18 14:54,506
12/13/18 14:54,507
12/13/18 14:54,508
12/13/18 14:54,508
12/13/18 14:54,509
12/13/18 14:54,507
12/13/18 14:54,508
12/13/18 14:54,509
12/13/18 14:54,504
12/13/18 14:54,515
12/13/18 15:03,513
12/13/18 15:03,513
12/13/18 15:03,510
12/13/18 15:03,507
12/13/18 15:03,505
12/13/18 15:03,503
12/13/18 15:03,503
12/13/18 15:03,503
12/13/18 15:03,501
12/13/18 15:03,500
12/13/18 15:03,503
12/13/18 15:03,504
12/13/18 15:03,505
12/13/18 15:03,507
12/13/18 15:03,504
12/13/18 15:03,507
12/13/18 15:03,509
12/13/18 15:03,509
12/13/18 15:03,509
12/13/18 15:03,510
12/13/18 15:03,511
12/13/18 15:03,510
12/13/18 15:03,510
12/13/18 15:03,510
12/13/18 15:03,513
12/13/18 15:03,513
12/13/18 15:03,511
12/13/18 15:03,508
12/13/18 15:03,509
12/13/18 15:03,510
12/13/18 15:03,510
12/13/18 15:03,509
12/13/18 15:03,507
12/13/18 15:03,509
12/13/18 15:03,509
12/13/18 15:03,509
12/13/18 15:03,505
12/13/18 15:03,507
12/13/18 15:03,508
12/13/18 15:03,506
12/13/18 15:03,506
12/13/18 15:03,507
12/13/18 15:03,506
12/13/18 15:03,509
12/13/18 15:03,508
12/13/18 15:03,508
12/13/18 15:03,508
12/13/18 15:03,507
12/13/18 15:03,508
12/13/18 15:03,508
12/13/18 15:03,507
12/13/18 15:03,507
12/13/18 15:03,505
12/13/18 15:03,503
12/13/18 15:03,519
12/13/18 15:03,515
12/13/18 15:03,511
12/13/18 15:03,508
12/13/18 15:03,509
12/13/18 15:03,505
12/13/18 15:03,503
12/13/18 15:03,499
12/13/18 15:03,500
12/13/18 15:03,502
12/13/18 15:03,505
12/13/18 15:03,507
12/13/18 15:03,506
12/13/18 15:03,508
12/13/18 15:03,508
12/13/18 15:03,509
12/13/18 15:03,511
12/13/18 15:03,510
12/13/18 15:03,511
12/13/18 15:03,511
12/13/18 15:03,511
12/13/18 15:03,511
12/13/18 15:03,509
12/13/18 15:03,511
12/13/18 15:03,509
12/13/18 15:03,511
12/13/18 15:03,511
12/13/18 15:03,508
12/13/18 15:03,511
12/13/18 15:03,509
12/13/18 15:03,509
12/13/18 15:03,508
12/13/18 15:03,509
12/13/18 15:03,509
12/13/18 15:03,508
12/13/18 15:03,508
12/13/18 15:03,509
12/13/18 15:03,507
12/13/18 15:03,506
12/13/18 15:03,507
12/13/18 15:03,507
12/13/18 15:03,506
12/13/18 15:03,505
12/13/18 15:03,509
12/13/18 15:03,509
12/13/18 15:03,508
12/13/18 15:03,509
12/13/18 15:03,508
12/13/18 15:03,506
12/13/18 15:03,508
12/13/18 15:03,507
12/13/18 15:03,507
12/13/18 15:03,507
12/13/18 15:03,524
12/13/18 15:03,509
12/13/18 15:03,510
12/13/18 15:03,507
12/13/18 15:03,506
12/13/18 15:03,505
12/13/18 15:03,506
12/13/18 15:03,503
12/13/18 15:03,502
12/13/18 15:03,501
12/13/18 15:03,503
12/13/18 15:03,502
12/13/18 15:03,503
12/13/18 15:03,505
12/13/18 15:03,506
12/13/18 15:03,509
12/13/18 15:03,509
12/13/18 15:03,509
12/13/18 15:03,511
12/13/18 15:03,510
12/13/18 15:03,511
12/13/18 15:03,511
12/13/18 15:03,512
12/13/18 15:03,511
12/13/18 15:03,511
12/13/18 15:03,512
12/13/18 15:03,510
12/13/18 15:03,510
12/13/18 15:03,509
12/13/18 15:03,510
12/13/18 15:03,509
12/13/18 15:03,510
12/13/18 15:03,509
12/13/18 15:03,506
12/13/18 15:03,510
12/13/18 15:03,507
12/13/18 15:03,507
12/13/18 15:03,506
12/13/18 15:03,507
12/13/18 15:03,506
12/13/18 15:03,507
12/13/18 15:03,506
12/13/18 15:03,507
12/13/18 15:03,507
12/13/18 15:03,507
12/13/18 15:03,508
12/13/18 15:03,508
12/13/18 15:03,508
12/13/18 15:03,507
12/13/18 15:03,508
12/13/18 15:03,506
12/13/18 15:03,507
12/13/18 15:03,509
12/13/18 15:03,520
12/13/18 15:03,515
12/13/18 15:03,511
12/13/18 15:03,509
12/13/18 15:03,510
12/13/18 15:03,506
12/13/18 15:03,503
12/13/18 15:03,502
12/13/18 15:03,500
12/13/18 15:03,502
12/13/18 15:03,501
12/13/18 15:03,503
12/13/18 15:03,506
12/13/18 15:03,505
12/13/18 15:03,508
12/13/18 15:03,508
12/13/18 15:03,511
12/13/18 15:03,510
12/13/18 15:03,510
12/13/18 15:03,511
12/13/18 15:03,513
12/13/18 15:03,512
12/13/18 15:03,510
12/13/18 15:03,511
12/13/18 15:03,511
12/13/18 15:03,508
12/13/18 15:03,511
12/13/18 15:03,511
12/13/18 15:03,509
12/13/18 15:03,511
12/13/18 15:03,508
12/13/18 15:03,510
12/13/18 15:03,508
12/13/18 15:03,507
12/13/18 15:03,510
12/13/18 15:03,507
12/13/18 15:03,509
12/13/18 15:03,508
12/13/18 15:03,508
12/13/18 15:03,507
12/13/18 15:03,506
12/13/18 15:03,507
12/13/18 15:03,506
12/13/18 15:03,507
12/13/18 15:03,508
12/13/18 15:03,507
12/13/18 15:03,507
12/13/18 15:03,507
12/13/18 15:03,508
12/13/18 15:03,510
12/13/18 15:03,507
12/13/18 15:03,507
12/13/18 15:03,508
12/13/18 15:03,514
12/13/18 15:03,494
12/13/18 15:03,524
12/13/18 15:03,516
12/13/18 15:03,512
12/13/18 15:03,508
12/13/18 15:03,510
12/13/18 15:03,505
12/13/18 15:03,502
12/13/18 15:03,501
12/13/18 15:03,501
12/13/18 15:03,502
12/13/18 15:03,503
12/13/18 15:03,504
12/13/18 15:03,507
12/13/18 15:03,506
12/13/18 15:03,505
12/13/18 15:03,507
12/13/18 15:03,510
12/13/18 15:03,511
12/13/18 15:03,511
12/13/18 15:03,511
12/13/18 15:03,513
12/13/18 15:03,512
12/13/18 15:03,511
12/13/18 15:03,511
12/13/18 15:03,512
12/13/18 15:03,512
12/13/18 15:03,510
12/13/18 15:03,509
12/13/18 15:03,509
12/13/18 15:03,511
12/13/18 15:03,510
12/13/18 15:03,508
12/13/18 15:03,509
12/13/18 15:03,509
12/13/18 15:03,509
12/13/18 15:03,508
12/13/18 15:03,506
12/13/18 15:03,504
12/13/18 15:03,507
12/13/18 15:03,508
12/13/18 15:03,508
12/13/18 15:03,508
12/13/18 15:03,507
12/13/18 15:03,508
12/13/18 15:03,507
12/13/18 15:03,507
12/13/18 15:03,507
12/13/18 15:03,509
12/13/18 15:03,507
12/13/18 15:03,508
12/13/18 15:03,507
12/13/18 15:03,505
12/13/18 15:03,518
12/13/18 15:03,513
12/13/18 15:03,509
12/13/18 15:03,508
12/13/18 15:03,507
12/13/18 15:03,504
12/13/18 15:03,507
12/13/18 15:03,504
12/13/18 15:03,502
12/13/18 15:03,501
12/13/18 15:03,501
12/13/18 15:03,503
12/13/18 15:03,505
12/13/18 15:03,507
12/13/18 15:03,507
12/13/18 15:03,507
12/13/18 15:03,510
12/13/18 15:03,510
12/13/18 15:03,510
12/13/18 15:03,510
12/13/18 15:03,510
12/13/18 15:03,512
12/13/18 15:03,511
12/13/18 15:03,510
12/13/18 15:03,510
12/13/18 15:03,511
12/13/18 15:03,512
12/13/18 15:03,509
12/13/18 15:03,509
12/13/18 15:03,509
12/13/18 15:03,509
12/13/18 15:03,511
12/13/18 15:03,508
12/13/18 15:03,510
12/13/18 15:03,509
12/13/18 15:03,508
12/13/18 15:03,506
12/13/18 15:03,506
12/13/18 15:03,507
12/13/18 15:03,507
12/13/18 15:03,507
12/13/18 15:03,509
12/13/18 15:03,506
12/13/18 15:03,507
12/13/18 15:03,507
12/13/18 15:03,506
12/13/18 15:03,508
12/13/18 15:03,507
12/13/18 15:03,508
12/13/18 15:03,509
12/13/18 15:03,508
12/13/18 15:03,508
12/13/18 15:03,504
12/13/18 15:03,500
12/13/18 15:03,519
12/13/18 15:03,514
12/13/18 15:03,510
12/13/18 15:03,508
12/13/18 15:03,507
12/13/18 15:03,505
12/13/18 15:03,504
12/13/18 15:03,500
12/13/18 15:03,501
12/13/18 15:03,501
12/13/18 15:03,503
12/13/18 15:03,503
12/13/18 15:03,508
12/13/18 15:03,506
12/13/18 15:03,507
12/13/18 15:03,509
12/13/18 15:03,508
12/13/18 15:03,511
12/13/18 15:03,511
12/13/18 15:03,510
12/13/18 15:03,511
12/13/18 15:03,511
12/13/18 15:03,513
12/13/18 15:03,511
12/13/18 15:03,511
12/13/18 15:03,510
12/13/18 15:03,509
12/13/18 15:03,510
12/13/18 15:03,508
12/13/18 15:03,511
12/13/18 15:03,507
12/13/18 15:03,511
12/13/18 15:03,509
12/13/18 15:03,508
12/13/18 15:03,510
12/13/18 15:03,508
12/13/18 15:03,506
12/13/18 15:03,507
12/13/18 15:03,507
12/13/18 15:03,508
12/13/18 15:03,506
12/13/18 15:03,507
12/13/18 15:03,507
12/13/18 15:03,507
12/13/18 15:03,508
12/13/18 15:03,508
12/13/18 15:03,507
12/13/18 15:03,508
12/13/18 15:03,505
12/13/18 15:03,509
12/13/18 15:03,507
12/13/18 15:03,506
12/13/18 15:03,484
12/13/18 15:03,516
12/13/18 15:03,525
12/13/18 15:03,519
12/13/18 15:03,511
12/13/18 15:03,509
12/13/18 15:03,505
12/13/18 15:03,505
12/13/18 15:03,501
12/13/18 15:03,499
12/13/18 15:03,500
12/13/18 15:03,501
12/13/18 15:03,505
12/13/18 15:03,505
12/13/18 15:03,506
12/13/18 15:03,507
12/13/18 15:03,508
12/13/18 15:03,510
12/13/18 15:03,510
12/13/18 15:03,511
12/13/18 15:03,511
12/13/18 15:03,511
12/13/18 15:03,512
12/13/18 15:03,510
12/13/18 15:03,510
12/13/18 15:03,511
12/13/18 15:03,510
12/13/18 15:03,511
12/13/18 15:03,510
12/13/18 15:03,509
12/13/18 15:03,509
12/13/18 15:03,510
12/13/18 15:03,510
12/13/18 15:03,507
12/13/18 15:03,510
12/13/18 15:03,507
12/13/18 15:03,507
12/13/18 15:03,507
12/13/18 15:03,507
12/13/18 15:03,509
12/13/18 15:03,506
12/13/18 15:03,507
12/13/18 15:03,508
12/13/18 15:03,507
12/13/18 15:03,506
12/13/18 15:03,507
12/13/18 15:03,508
12/13/18 15:03,507
12/13/18 15:03,508
12/13/18 15:03,508
12/13/18 15:03,508
12/13/18 15:03,508
12/13/18 15:03,509
12/13/18 15:03,508
12/13/18 15:03,509
12/13/18 15:03,517
12/13/18 15:03,515
12/13/18 15:03,511
12/13/18 15:03,506
12/13/18 15:03,506
12/13/18 15:03,502
12/13/18 15:03,504
12/13/18 15:03,503
12/13/18 15:03,502
12/13/18 15:03,503
12/13/18 15:03,503
12/13/18 15:03,505
12/13/18 15:03,505
12/13/18 15:03,507
12/13/18 15:03,507
12/13/18 15:03,507
12/13/18 15:03,509
12/13/18 15:03,512
12/13/18 15:03,510
12/13/18 15:03,511
12/13/18 15:03,511
12/13/18 15:03,511
12/13/18 15:03,509
12/13/18 15:03,512
12/13/18 15:03,511
12/13/18 15:03,510
12/13/18 15:03,511
12/13/18 15:03,509
12/13/18 15:03,510
12/13/18 15:03,510
12/13/18 15:03,510
12/13/18 15:03,508
12/13/18 15:03,508
12/13/18 15:03,510
12/13/18 15:03,508
12/13/18 15:03,505
12/13/18 15:03,507
12/13/18 15:03,505
12/13/18 15:03,507
12/13/18 15:03,507
12/13/18 15:03,507
12/13/18 15:03,508
12/13/18 15:03,508
12/13/18 15:03,507
12/13/18 15:03,509
12/13/18 15:03,507
12/13/18 15:03,508
12/13/18 15:03,509
12/13/18 15:03,508
12/13/18 15:03,508
12/13/18 15:03,508
12/13/18 15:03,507
12/13/18 15:03,479
12/13/18 15:03,523
12/13/18 15:03,519
12/13/18 15:03,516
12/13/18 15:03,513
12/13/18 15:03,510
12/13/18 15:03,508
12/13/18 15:03,505
12/13/18 15:03,502
12/13/18 15:03,500
12/13/18 15:03,501
12/13/18 15:03,503
12/13/18 15:03,504
12/13/18 15:03,505
12/13/18 15:03,506
12/13/18 15:03,505
12/13/18 15:03,508
12/13/18 15:03,509
12/13/18 15:03,510
12/13/18 15:03,508
12/13/18 15:03,510
12/13/18 15:03,511
12/13/18 15:03,514
12/13/18 15:03,511
12/13/18 15:03,511
12/13/18 15:03,509
12/13/18 15:03,511
12/13/18 15:03,510
12/13/18 15:03,510
12/13/18 15:03,508
12/13/18 15:03,510
12/13/18 15:03,510
12/13/18 15:03,508
12/13/18 15:03,508
12/13/18 15:03,508
12/13/18 15:03,507
12/13/18 15:03,506
12/13/18 15:03,509
12/13/18 15:03,507
12/13/18 15:03,506
12/13/18 15:03,507
12/13/18 15:03,508
12/13/18 15:03,507
12/13/18 15:03,506
12/13/18 15:03,508
12/13/18 15:03,507
12/13/18 15:03,507
12/13/18 15:03,507
12/13/18 15:03,509
12/13/18 15:03,508
12/13/18 15:03,507
12/13/18 15:03,507
12/13/18 15:03,506
12/13/18 15:03,500
12/13/18 15:03,522
12/13/18 15:03,512
12/13/18 15:03,512
12/13/18 15:03,507
12/13/18 15:03,506
12/13/18 15:03,504
12/13/18 15:03,504
12/13/18 15:03,502
12/13/18 15:03,499
12/13/18 15:03,501
12/13/18 15:03,502
12/13/18 15:03,503
12/13/18 15:03,506
12/13/18 15:03,505
12/13/18 15:03,509
12/13/18 15:03,509
12/13/18 15:03,508
12/13/18 15:03,509
12/13/18 15:03,511
12/13/18 15:03,511
12/13/18 15:03,513
12/13/18 15:03,511
12/13/18 15:03,510
12/13/18 15:03,511
12/13/18 15:03,509
12/13/18 15:03,511
12/13/18 15:03,510
12/13/18 15:03,512
12/13/18 15:03,511
12/13/18 15:03,509
12/13/18 15:03,509
12/13/18 15:03,509
12/13/18 15:03,512
12/13/18 15:03,508
12/13/18 15:03,508
12/13/18 15:03,509
12/13/18 15:03,507
12/13/18 15:03,508
12/13/18 15:03,506
12/13/18 15:03,506
12/13/18 15:03,507
12/13/18 15:03,506
12/13/18 15:03,506
12/13/18 15:03,509
12/13/18 15:03,508
12/13/18 15:03,507
12/13/18 15:03,507
12/13/18 15:03,508
12/13/18 15:03,507
12/13/18 15:03,507
12/13/18 15:03,508
12/13/18 15:03,505
12/13/18 15:03,507
12/13/18 15:03,517
12/13/18 15:03,515
12/13/18 15:03,509
12/13/18 15:03,508
12/13/18 15:03,507
12/13/18 15:03,506
12/13/18 15:03,505
12/13/18 15:03,501
12/13/18 15:03,498
12/13/18 15:03,501
12/13/18 15:03,503
12/13/18 15:03,506
12/13/18 15:03,507
12/13/18 15:12,508
12/13/18 15:12,510
12/13/18 15:12,511
12/13/18 15:12,511
12/13/18 15:12,510
12/13/18 15:12,511
12/13/18 15:12,510
12/13/18 15:12,510
12/13/18 15:12,511
12/13/18 15:12,510
12/13/18 15:12,510
12/13/18 15:12,507
12/13/18 15:12,509
12/13/18 15:12,509
12/13/18 15:12,509
12/13/18 15:12,510
12/13/18 15:12,508
12/13/18 15:12,509
12/13/18 15:12,508
12/13/18 15:12,507
12/13/18 15:12,509
12/13/18 15:12,506
12/13/18 15:12,508
12/13/18 15:12,506
12/13/18 15:12,505
12/13/18 15:12,508
12/13/18 15:12,505
12/13/18 15:12,508
12/13/18 15:12,508
12/13/18 15:12,507
12/13/18 15:12,508
12/13/18 15:12,506
12/13/18 15:12,508
12/13/18 15:12,509
12/13/18 15:12,508
12/13/18 15:12,502
12/13/18 15:12,515
12/13/18 15:12,520
12/13/18 15:12,515
12/13/18 15:12,510
12/13/18 15:12,508
12/13/18 15:12,507
12/13/18 15:12,504
12/13/18 15:12,503
12/13/18 15:12,501
12/13/18 15:12,502
12/13/18 15:12,502
12/13/18 15:12,503
12/13/18 15:12,505
12/13/18 15:12,506
12/13/18 15:12,507
12/13/18 15:12,504
12/13/18 15:12,509
12/13/18 15:12,508
12/13/18 15:12,509
12/13/18 15:12,512
12/13/18 15:12,508
12/13/18 15:12,513
12/13/18 15:12,510
12/13/18 15:12,510
12/13/18 15:12,511
12/13/18 15:12,509
12/13/18 15:12,511
12/13/18 15:12,511
12/13/18 15:12,509
12/13/18 15:12,511
12/13/18 15:12,509
12/13/18 15:12,510
12/13/18 15:12,507
12/13/18 15:12,508
12/13/18 15:12,509
12/13/18 15:12,506
12/13/18 15:12,509
12/13/18 15:12,505
12/13/18 15:12,506
12/13/18 15:12,507
12/13/18 15:12,506
12/13/18 15:12,509
12/13/18 15:12,507
12/13/18 15:12,508
12/13/18 15:12,509
12/13/18 15:12,506
12/13/18 15:12,509
12/13/18 15:12,507
12/13/18 15:12,508
12/13/18 15:12,510
12/13/18 15:12,506
12/13/18 15:12,508
12/13/18 15:12,489
12/13/18 15:12,522
12/13/18 15:12,518
12/13/18 15:12,513
12/13/18 15:12,508
12/13/18 15:12,506
12/13/18 15:12,508
12/13/18 15:12,504
12/13/18 15:12,501
12/13/18 15:12,502
12/13/18 15:12,500
12/13/18 15:12,501
12/13/18 15:12,504
12/13/18 15:12,503
12/13/18 15:12,508
12/13/18 15:12,505
12/13/18 15:12,508
12/13/18 15:12,509
12/13/18 15:12,511
12/13/18 15:12,513
12/13/18 15:12,510
12/13/18 15:12,513
12/13/18 15:12,511
12/13/18 15:12,511
12/13/18 15:12,511
12/13/18 15:12,509
12/13/18 15:12,511
12/13/18 15:12,510
12/13/18 15:12,510
12/13/18 15:12,512
12/13/18 15:12,507
12/13/18 15:12,510
12/13/18 15:12,509
12/13/18 15:12,508
12/13/18 15:12,510
12/13/18 15:12,505
12/13/18 15:12,508
12/13/18 15:12,507
12/13/18 15:12,506
12/13/18 15:12,508
12/13/18 15:12,507
12/13/18 15:12,508
12/13/18 15:12,507
12/13/18 15:12,507
12/13/18 15:12,508
12/13/18 15:12,506
12/13/18 15:12,508
12/13/18 15:12,506
12/13/18 15:12,508
12/13/18 15:12,508
12/13/18 15:12,507
12/13/18 15:12,510
12/13/18 15:12,503
12/13/18 15:12,506
12/13/18 15:12,521
12/13/18 15:12,509
12/13/18 15:12,511
12/13/18 15:12,508
12/13/18 15:12,506
12/13/18 15:12,508
12/13/18 15:12,503
12/13/18 15:12,501
12/13/18 15:12,498
12/13/18 15:12,501
12/13/18 15:12,503
12/13/18 15:12,504
12/13/18 15:12,507
12/13/18 15:12,506
12/13/18 15:12,508
12/13/18 15:12,509
12/13/18 15:12,508
12/13/18 15:12,513
12/13/18 15:12,511
12/13/18 15:12,511
12/13/18 15:12,510
12/13/18 15:12,510
12/13/18 15:12,511
12/13/18 15:12,510
12/13/18 15:12,511
12/13/18 15:12,510
12/13/18 15:12,510
12/13/18 15:12,511
12/13/18 15:12,508
12/13/18 15:12,510
12/13/18 15:12,510
12/13/18 15:12,508
12/13/18 15:12,509
12/13/18 15:12,506
12/13/18 15:12,510
12/13/18 15:12,507
12/13/18 15:12,506
12/13/18 15:12,508
12/13/18 15:12,505
12/13/18 15:12,505
12/13/18 15:12,506
12/13/18 15:12,507
12/13/18 15:12,510
12/13/18 15:12,506
12/13/18 15:12,509
12/13/18 15:12,507
12/13/18 15:12,508
12/13/18 15:12,508
12/13/18 15:12,507
12/13/18 15:12,508
12/13/18 15:12,505
12/13/18 15:12,508
12/13/18 15:12,521
12/13/18 15:12,515
12/13/18 15:12,513
12/13/18 15:12,507
12/13/18 15:12,505
12/13/18 15:12,504
12/13/18 15:12,501
12/13/18 15:12,505
12/13/18 15:12,501
12/13/18 15:12,503
12/13/18 15:12,504
12/13/18 15:12,505
12/13/18 15:12,507
12/13/18 15:12,506
12/13/18 15:12,508
12/13/18 15:12,509
12/13/18 15:12,508
12/13/18 15:12,511
12/13/18 15:12,509
12/13/18 15:12,511
12/13/18 15:12,510
12/13/18 15:12,509
12/13/18 15:12,510
12/13/18 15:12,510
12/13/18 15:12,511
12/13/18 15:12,511
12/13/18 15:12,508
12/13/18 15:12,510
12/13/18 15:12,509
12/13/18 15:12,510
12/13/18 15:12,509
12/13/18 15:12,509
12/13/18 15:12,510
12/13/18 15:12,508
12/13/18 15:12,508
12/13/18 15:12,508
12/13/18 15:12,508
12/13/18 15:12,508
12/13/18 15:12,505
12/13/18 15:12,508
12/13/18 15:12,507
12/13/18 15:12,505
12/13/18 15:12,508
12/13/18 15:12,506
12/13/18 15:12,508
12/13/18 15:12,509
12/13/18 15:12,508
12/13/18 15:12,508
12/13/18 15:12,508
12/13/18 15:12,508
12/13/18 15:12,507
12/13/18 15:12,505
12/13/18 15:12,512
12/13/18 15:12,516
12/13/18 15:12,516
12/13/18 15:12,509
12/13/18 15:12,510
12/13/18 15:12,510
12/13/18 15:12,508
12/13/18 15:12,505
12/13/18 15:12,499
12/13/18 15:12,499
12/13/18 15:12,501
12/13/18 15:12,500
12/13/18 15:12,505
12/13/18 15:12,505
12/13/18 15:12,506
12/13/18 15:12,507
12/13/18 15:12,508
12/13/18 15:12,511
12/13/18 15:12,510
12/13/18 15:12,514
12/13/18 15:12,511
12/13/18 15:12,510
12/13/18 15:12,513
12/13/18 15:12,509
12/13/18 15:12,511
12/13/18 15:12,511
12/13/18 15:12,509
12/13/18 15:12,513
12/13/18 15:12,509
12/13/18 15:12,510
12/13/18 15:12,509
12/13/18 15:12,509
12/13/18 15:12,511
12/13/18 15:12,507
12/13/18 15:12,510
12/13/18 15:12,508
12/13/18 15:12,507
12/13/18 15:12,510
12/13/18 15:12,505
12/13/18 15:12,508
12/13/18 15:12,507
12/13/18 15:12,505
12/13/18 15:12,509
12/13/18 15:12,507
12/13/18 15:12,507
12/13/18 15:12,508
12/13/18 15:12,507
12/13/18 15:12,510
12/13/18 15:12,507
12/13/18 15:12,507
12/13/18 15:12,507
12/13/18 15:12,507
12/13/18 15:12,508
12/13/18 15:12,507
12/13/18 15:12,519
12/13/18 15:12,510
12/13/18 15:12,510
12/13/18 15:12,509
12/13/18 15:12,503
12/13/18 15:12,502
12/13/18 15:12,501
12/13/18 15:12,500
12/13/18 15:12,501
12/13/18 15:12,501
12/13/18 15:12,506
12/13/18 15:12,504
12/13/18 15:12,505
12/13/18 15:12,508
12/13/18 15:12,508
12/13/18 15:12,510
12/13/18 15:12,509
12/13/18 15:12,509
12/13/18 15:12,511
12/13/18 15:12,510
12/13/18 15:12,512
12/13/18 15:12,512
12/13/18 15:12,513
12/13/18 15:12,512
12/13/18 15:12,510
12/13/18 15:12,513
12/13/18 15:12,510
12/13/18 15:12,511
12/13/18 15:12,509
12/13/18 15:12,507
12/13/18 15:12,511
12/13/18 15:12,508
12/13/18 15:12,508
12/13/18 15:12,509
12/13/18 15:12,508
12/13/18 15:12,509
12/13/18 15:12,506
12/13/18 15:12,507
12/13/18 15:12,508
12/13/18 15:12,506
12/13/18 15:12,508
12/13/18 15:12,506
12/13/18 15:12,509
12/13/18 15:12,506
12/13/18 15:12,508
12/13/18 15:12,507
12/13/18 15:12,506
12/13/18 15:12,510
12/13/18 15:12,508
12/13/18 15:12,508
12/13/18 15:12,509
12/13/18 15:12,504
12/13/18 15:12,504
12/13/18 15:12,511
12/13/18 15:12,515
12/13/18 15:12,514
12/13/18 15:12,510
12/13/18 15:12,506
12/13/18 15:12,507
12/13/18 15:12,505
12/13/18 15:12,503
12/13/18 15:12,500
12/13/18 15:12,502
12/13/18 15:12,502
12/13/18 15:12,504
12/13/18 15:12,508
12/13/18 15:12,505
12/13/18 15:12,508
12/13/18 15:12,507
12/13/18 15:12,507
12/13/18 15:12,509
12/13/18 15:12,509
12/13/18 15:12,513
12/13/18 15:12,511
12/13/18 15:12,509
12/13/18 15:12,512
12/13/18 15:12,511
12/13/18 15:12,511
12/13/18 15:12,509
12/13/18 15:12,510
12/13/18 15:12,510
12/13/18 15:12,508
12/13/18 15:12,511
12/13/18 15:12,508
12/13/18 15:12,510
12/13/18 15:12,509
12/13/18 15:12,508
12/13/18 15:12,510
12/13/18 15:12,506
12/13/18 15:12,507
12/13/18 15:12,507
12/13/18 15:12,505
12/13/18 15:12,507
12/13/18 15:12,506
12/13/18 15:12,507
12/13/18 15:12,508
12/13/18 15:12,507
12/13/18 15:12,510
12/13/18 15:12,508
12/13/18 15:12,508
12/13/18 15:12,508
12/13/18 15:12,505
12/13/18 15:12,510
12/13/18 15:12,506
12/13/18 15:12,508
12/13/18 15:12,507
12/13/18 15:12,510
12/13/18 15:12,518
12/13/18 15:12,509
12/13/18 15:12,511
12/13/18 15:12,508
12/13/18 15:12,505
12/13/18 15:12,505
12/13/18 15:12,502
12/13/18 15:12,503
12/13/18 15:12,501
12/13/18 15:12,501
12/13/18 15:12,503
12/13/18 15:12,502
12/13/18 15:12,508
12/13/18 15:12,509
12/13/18 15:12,508
12/13/18 15:12,509
12/13/18 15:12,509
12/13/18 15:12,511
12/13/18 15:12,510
12/13/18 15:12,510
12/13/18 15:12,514
12/13/18 15:12,510
12/13/18 15:12,514
12/13/18 15:12,511
12/13/18 15:12,509
12/13/18 15:12,510
12/13/18 15:12,508
12/13/18 15:12,512
12/13/18 15:12,509
12/13/18 15:12,509
12/13/18 15:12,511
12/13/18 15:12,507
12/13/18 15:12,511
12/13/18 15:12,508
12/13/18 15:12,509
12/13/18 15:12,509
12/13/18 15:12,504
12/13/18 15:12,508
12/13/18 15:12,507
12/13/18 15:12,509
12/13/18 15:12,508
12/13/18 15:12,504
12/13/18 15:12,507
12/13/18 15:12,507
12/13/18 15:12,508
12/13/18 15:12,509
12/13/18 15:12,506
12/13/18 15:12,508
12/13/18 15:12,505
12/13/18 15:12,508
12/13/18 15:12,508
12/13/18 15:12,505
12/13/18 15:12,506
12/13/18 15:12,521
12/13/18 15:12,514
12/13/18 15:12,512
12/13/18 15:12,508
12/13/18 15:12,507
12/13/18 15:12,507
12/13/18 15:12,506
12/13/18 15:12,502
12/13/18 15:12,500
12/13/18 15:12,500
12/13/18 15:12,501
12/13/18 15:12,505
12/13/18 15:12,508
12/13/18 15:12,507
12/13/18 15:12,509
12/13/18 15:12,507
12/13/18 15:12,510
12/13/18 15:12,510
12/13/18 15:12,509
12/13/18 15:12,511
12/13/18 15:12,510
12/13/18 15:12,511
12/13/18 15:12,510
12/13/18 15:12,510
12/13/18 15:12,513
12/13/18 15:12,508
12/13/18 15:12,510
12/13/18 15:12,509
12/13/18 15:12,508
12/13/18 15:12,511
12/13/18 15:12,509
12/13/18 15:12,508
12/13/18 15:12,507
12/13/18 15:12,508
12/13/18 15:12,509
12/13/18 15:12,507
12/13/18 15:12,508
12/13/18 15:12,507
12/13/18 15:12,508
12/13/18 15:12,507
12/13/18 15:12,506
12/13/18 15:12,510
12/13/18 15:12,508
12/13/18 15:12,509
12/13/18 15:12,506
12/13/18 15:12,503
12/13/18 15:12,508
12/13/18 15:12,505
12/13/18 15:12,509
12/13/18 15:12,508
12/13/18 15:12,506
12/13/18 15:12,508
12/13/18 15:12,513
12/13/18 15:12,514
12/13/18 15:12,512
12/13/18 15:12,509
12/13/18 15:12,510
12/13/18 15:12,503
12/13/18 15:12,504
12/13/18 15:12,505
12/13/18 15:12,502
12/13/18 15:12,505
12/13/18 15:12,501
12/13/18 15:12,505
12/13/18 15:12,506
12/13/18 15:12,505
12/13/18 15:12,506
12/13/18 15:12,504
12/13/18 15:12,508
12/13/18 15:12,510
12/13/18 15:12,510
12/13/18 15:12,513
12/13/18 15:12,508
12/13/18 15:12,512
12/13/18 15:12,510
12/13/18 15:12,510
12/13/18 15:12,513
12/13/18 15:12,509
12/13/18 15:12,512
12/13/18 15:12,508
12/13/18 15:12,512
12/13/18 15:12,511
12/13/18 15:12,506
12/13/18 15:12,510
12/13/18 15:12,509
12/13/18 15:12,509
12/13/18 15:12,510
12/13/18 15:12,505
12/13/18 15:12,508
12/13/18 15:12,506
12/13/18 15:12,507
12/13/18 15:12,508
12/13/18 15:12,505
12/13/18 15:12,508
12/13/18 15:12,506
12/13/18 15:12,508
12/13/18 15:12,508
12/13/18 15:12,508
12/13/18 15:12,510
12/13/18 15:12,506
12/13/18 15:12,507
12/13/18 15:12,508
12/13/18 15:12,507
12/13/18 15:12,510
12/13/18 15:12,505
12/13/18 15:12,487
12/13/18 15:12,529
12/13/18 15:12,519
12/13/18 15:12,516
12/13/18 15:12,512
12/13/18 15:12,508
12/13/18 15:12,509
12/13/18 15:12,498
12/13/18 15:12,502
12/13/18 15:12,500
12/13/18 15:12,504
12/13/18 15:12,506
12/13/18 15:12,504
12/13/18 15:12,505
12/13/18 15:12,504
12/13/18 15:12,507
12/13/18 15:12,508
12/13/18 15:12,509
12/13/18 15:12,510
12/13/18 15:12,509
12/13/18 15:12,512
12/13/18 15:12,509
12/13/18 15:12,510
12/13/18 15:12,511
12/13/18 15:12,508
12/13/18 15:12,513
12/13/18 15:12,511
12/13/18 15:12,508
12/13/18 15:12,512
12/13/18 15:12,507
12/13/18 15:12,510
12/13/18 15:12,509
12/13/18 15:12,507
12/13/18 15:12,510
12/13/18 15:12,507
12/13/18 15:21,507
12/13/18 15:21,506
12/13/18 15:21,507
12/13/18 15:21,506
12/13/18 15:21,505
12/13/18 15:21,507
12/13/18 15:21,506
12/13/18 15:21,506
12/13/18 15:21,508
12/13/18 15:21,507
12/13/18 15:21,507
12/13/18 15:21,509
12/13/18 15:21,507
12/13/18 15:21,507
12/13/18 15:21,510
12/13/18 15:21,513
12/13/18 15:21,513
12/13/18 15:21,512
12/13/18 15:21,510
12/13/18 15:21,507
12/13/18 15:21,506
12/13/18 15:21,505
12/13/18 15:21,504
12/13/18 15:21,501
12/13/18 15:21,497
12/13/18 15:21,500
12/13/18 15:21,503
12/13/18 15:21,506
12/13/18 15:21,504
12/13/18 15:21,505
12/13/18 15:21,509
12/13/18 15:21,510
12/13/18 15:21,510
12/13/18 15:21,510
12/13/18 15:21,509
12/13/18 15:21,510
12/13/18 15:21,513
12/13/18 15:21,513
12/13/18 15:21,511
12/13/18 15:21,510
12/13/18 15:21,511
12/13/18 15:21,511
12/13/18 15:21,511
12/13/18 15:21,509
12/13/18 15:21,508
12/13/18 15:21,509
12/13/18 15:21,509
12/13/18 15:21,510
12/13/18 15:21,509
12/13/18 15:21,508
12/13/18 15:21,509
12/13/18 15:21,506
12/13/18 15:21,507
12/13/18 15:21,506
12/13/18 15:21,507
12/13/18 15:21,507
12/13/18 15:21,508
12/13/18 15:21,508
12/13/18 15:21,510
12/13/18 15:21,506
12/13/18 15:21,509
12/13/18 15:21,507
12/13/18 15:21,509
12/13/18 15:21,508
12/13/18 15:21,506
12/13/18 15:21,508
12/13/18 15:21,505
12/13/18 15:21,509
12/13/18 15:21,517
12/13/18 15:21,516
12/13/18 15:21,509
12/13/18 15:21,508
12/13/18 15:21,506
12/13/18 15:21,506
12/13/18 15:21,503
12/13/18 15:21,501
12/13/18 15:21,501
12/13/18 15:21,503
12/13/18 15:21,503
12/13/18 15:21,505
12/13/18 15:21,504
12/13/18 15:21,507
12/13/18 15:21,508
12/13/18 15:21,507
12/13/18 15:21,508
12/13/18 15:21,510
12/13/18 15:21,511
12/13/18 15:21,510
12/13/18 15:21,510
12/13/18 15:21,507
12/13/18 15:21,510
12/13/18 15:21,510
12/13/18 15:21,511
12/13/18 15:21,511
12/13/18 15:21,509
12/13/18 15:21,512
12/13/18 15:21,509
12/13/18 15:21,509
12/13/18 15:21,510
12/13/18 15:21,509
12/13/18 15:21,510
12/13/18 15:21,508
12/13/18 15:21,509
12/13/18 15:21,507
12/13/18 15:21,507
12/13/18 15:21,508
12/13/18 15:21,508
12/13/18 15:21,508
12/13/18 15:21,506
12/13/18 15:21,507
12/13/18 15:21,509
12/13/18 15:21,507
12/13/18 15:21,508
12/13/18 15:21,507
12/13/18 15:21,509
12/13/18 15:21,510
12/13/18 15:21,507
12/13/18 15:21,508
12/13/18 15:21,508
12/13/18 15:21,506
12/13/18 15:21,528
12/13/18 15:21,508
12/13/18 15:21,510
12/13/18 15:21,508
12/13/18 15:21,504
12/13/18 15:21,506
12/13/18 15:21,506
12/13/18 15:21,503
12/13/18 15:21,500
12/13/18 15:21,502
12/13/18 15:21,503
12/13/18 15:21,503
12/13/18 15:21,505
12/13/18 15:21,505
12/13/18 15:21,507
12/13/18 15:21,509
12/13/18 15:21,508
12/13/18 15:21,510
12/13/18 15:21,511
12/13/18 15:21,510
12/13/18 15:21,511
12/13/18 15:21,511
12/13/18 15:21,511
12/13/18 15:21,510
12/13/18 15:21,509
12/13/18 15:21,512
12/13/18 15:21,510
12/13/18 15:21,510
12/13/18 15:21,509
12/13/18 15:21,509
12/13/18 15:21,510
12/13/18 15:21,509
12/13/18 15:21,508
12/13/18 15:21,508
12/13/18 15:21,509
12/13/18 15:21,509
12/13/18 15:21,509
12/13/18 15:21,508
12/13/18 15:21,506
12/13/18 15:21,507
12/13/18 15:21,508
12/13/18 15:21,507
12/13/18 15:21,509
12/13/18 15:21,507
12/13/18 15:21,509
12/13/18 15:21,508
12/13/18 15:21,508
12/13/18 15:21,507
12/13/18 15:21,506
12/13/18 15:21,509
12/13/18 15:21,507
12/13/18 15:21,507
12/13/18 15:21,513
12/13/18 15:21,488
12/13/18 15:21,524
12/13/18 15:21,514
12/13/18 15:21,512
12/13/18 15:21,509
12/13/18 15:21,509
12/13/18 15:21,509
12/13/18 15:21,505
12/13/18 15:21,500
12/13/18 15:21,503
12/13/18 15:21,500
12/13/18 15:21,503
12/13/18 15:21,503
12/13/18 15:21,503
12/13/18 15:21,506
12/13/18 15:21,506
12/13/18 15:21,509
12/13/18 15:21,509
12/13/18 15:21,509
12/13/18 15:21,512
12/13/18 15:21,510
12/13/18 15:21,509
12/13/18 15:21,510
12/13/18 15:21,510
12/13/18 15:21,510
12/13/18 15:21,511
12/13/18 15:21,511
12/13/18 15:21,509
12/13/18 15:21,510
12/13/18 15:21,509
12/13/18 15:21,508
12/13/18 15:21,511
12/13/18 15:21,509
12/13/18 15:21,509
12/13/18 15:21,509
12/13/18 15:21,506
12/13/18 15:21,508
12/13/18 15:21,507
12/13/18 15:21,507
12/13/18 15:21,507
12/13/18 15:21,507
12/13/18 15:21,508
12/13/18 15:21,507
12/13/18 15:21,508
12/13/18 15:21,507
12/13/18 15:21,507
12/13/18 15:21,508
12/13/18 15:21,507
12/13/18 15:21,508
12/13/18 15:21,510
12/13/18 15:21,507
12/13/18 15:21,506
12/13/18 15:21,519
12/13/18 15:21,489
12/13/18 15:21,525
12/13/18 15:21,517
12/13/18 15:21,512
12/13/18 15:21,508
12/13/18 15:21,509
12/13/18 15:21,505
12/13/18 15:21,504
12/13/18 15:21,503
12/13/18 15:21,498
12/13/18 15:21,500
12/13/18 15:21,503
12/13/18 15:21,503
12/13/18 15:21,506
12/13/18 15:21,508
12/13/18 15:21,509
12/13/18 15:21,509
12/13/18 15:21,508
12/13/18 15:21,511
12/13/18 15:21,510
12/13/18 15:21,511
12/13/18 15:21,510
12/13/18 15:21,510
12/13/18 15:21,512
12/13/18 15:21,512
12/13/18 15:21,511
12/13/18 15:21,510
12/13/18 15:21,509
12/13/18 15:21,511
12/13/18 15:21,509
12/13/18 15:21,511
12/13/18 15:21,508
12/13/18 15:21,508
12/13/18 15:21,509
12/13/18 15:21,508
12/13/18 15:21,509
12/13/18 15:21,508
12/13/18 15:21,509
12/13/18 15:21,506
12/13/18 15:21,506
12/13/18 15:21,507
12/13/18 15:21,508
12/13/18 15:21,507
12/13/18 15:21,507
12/13/18 15:21,507
12/13/18 15:21,508
12/13/18 15:21,507
12/13/18 15:21,507
12/13/18 15:21,508
12/13/18 15:21,506
12/13/18 15:21,507
12/13/18 15:21,508
12/13/18 15:21,513
12/13/18 15:21,492
12/13/18 15:21,523
12/13/18 15:21,517
12/13/18 15:21,513
12/13/18 15:21,508
12/13/18 15:21,509
12/13/18 15:21,503
12/13/18 15:21,504
12/13/18 15:21,500
12/13/18 15:21,502
12/13/18 15:21,502
12/13/18 15:21,504
12/13/18 15:21,506
12/13/18 15:21,505
12/13/18 15:21,507
12/13/18 15:21,508
12/13/18 15:21,506
12/13/18 15:21,511
12/13/18 15:21,510
12/13/18 15:21,510
12/13/18 15:21,511
12/13/18 15:21,511
12/13/18 15:21,514
12/13/18 15:21,509
12/13/18 15:21,511
12/13/18 15:21,509
12/13/18 15:21,511
12/13/18 15:21,510
12/13/18 15:21,509
12/13/18 15:21,509
12/13/18 15:21,509
12/13/18 15:21,509
12/13/18 15:21,508
12/13/18 15:21,508
12/13/18 15:21,509
12/13/18 15:21,507
12/13/18 15:21,507
12/13/18 15:21,507
12/13/18 15:21,507
12/13/18 15:21,508
12/13/18 15:21,505
12/13/18 15:21,508
12/13/18 15:21,507
12/13/18 15:21,506
12/13/18 15:21,508
12/13/18 15:21,506
12/13/18 15:21,509
12/13/18 15:21,508
12/13/18 15:21,507
12/13/18 15:21,508
12/13/18 15:21,507
12/13/18 15:21,508
12/13/18 15:21,506
12/13/18 15:21,509
12/13/18 15:21,515
12/13/18 15:21,515
12/13/18 15:21,510
12/13/18 15:21,509
12/13/18 15:21,506
12/13/18 15:21,506
12/13/18 15:21,501
12/13/18 15:21,501
12/13/18 15:21,501
12/13/18 15:21,501
12/13/18 15:21,504
12/13/18 15:21,506
12/13/18 15:21,506
12/13/18 15:21,507
12/13/18 15:21,507
12/13/18 15:21,508
12/13/18 15:21,507
12/13/18 15:21,510
12/13/18 15:21,510
12/13/18 15:21,511
12/13/18 15:21,512
12/13/18 15:21,510
12/13/18 15:21,511
12/13/18 15:21,510
12/13/18 15:21,509
12/13/18 15:21,509
12/13/18 15:21,509
12/13/18 15:21,508
12/13/18 15:21,509
12/13/18 15:21,508
12/13/18 15:21,510
12/13/18 15:21,510
12/13/18 15:21,508
12/13/18 15:21,508
12/13/18 15:21,509
12/13/18 15:21,508
12/13/18 15:21,508
12/13/18 15:21,509
12/13/18 15:21,506
12/13/18 15:21,507
12/13/18 15:21,508
12/13/18 15:21,508
12/13/18 15:21,509
12/13/18 15:21,508
12/13/18 15:21,506
12/13/18 15:21,508
12/13/18 15:21,509
12/13/18 15:21,509
12/13/18 15:21,506
12/13/18 15:21,507
12/13/18 15:21,508
12/13/18 15:21,505
12/13/18 15:21,511
12/13/18 15:21,495
12/13/18 15:21,526
12/13/18 15:21,518
12/13/18 15:21,513
12/13/18 15:21,511
12/13/18 15:21,507
12/13/18 15:21,507
12/13/18 15:21,503
12/13/18 15:21,501
12/13/18 15:21,503
12/13/18 15:21,503
12/13/18 15:21,504
12/13/18 15:21,503
12/13/18 15:21,504
12/13/18 15:21,508
12/13/18 15:21,506
12/13/18 15:21,507
12/13/18 15:21,509
12/13/18 15:21,510
12/13/18 15:21,511
12/13/18 15:21,511
12/13/18 15:21,511
12/13/18 15:21,510
12/13/18 15:21,510
12/13/18 15:21,512
12/13/18 15:21,510
12/13/18 15:21,511
12/13/18 15:21,509
12/13/18 15:21,510
12/13/18 15:21,510
12/13/18 15:21,509
12/13/18 15:21,511
12/13/18 15:21,509
12/13/18 15:21,508
12/13/18 15:21,508
12/13/18 15:21,508
12/13/18 15:21,508
12/13/18 15:21,508
12/13/18 15:21,508
12/13/18 15:21,506
12/13/18 15:21,507
12/13/18 15:21,507
12/13/18 15:21,507
12/13/18 15:21,507
12/13/18 15:21,507
12/13/18 15:21,507
12/13/18 15:21,507
12/13/18 15:21,507
12/13/18 15:21,509
12/13/18 15:21,508
12/13/18 15:21,506
12/13/18 15:21,507
12/13/18 15:21,506
12/13/18 15:21,513
12/13/18 15:21,519
12/13/18 15:21,515
12/13/18 15:21,512
12/13/18 15:21,508
12/13/18 15:21,506
12/13/18 15:21,506
12/13/18 15:21,504
12/13/18 15:21,506
12/13/18 15:21,503
12/13/18 15:21,502
12/13/18 15:21,502
12/13/18 15:21,505
12/13/18 15:21,505
12/13/18 15:21,504
12/13/18 15:21,506
12/13/18 15:21,507
12/13/18 15:21,507
12/13/18 15:21,510
12/13/18 15:21,509
12/13/18 15:21,510
12/13/18 15:21,510
12/13/18 15:21,510
12/13/18 15:21,511
12/13/18 15:21,510
12/13/18 15:21,511
12/13/18 15:21,510
12/13/18 15:21,511
12/13/18 15:21,511
12/13/18 15:21,509
12/13/18 15:21,509
12/13/18 15:21,508
12/13/18 15:21,509
12/13/18 15:21,508
12/13/18 15:21,510
12/13/18 15:21,507
12/13/18 15:21,509
12/13/18 15:21,506
12/13/18 15:21,508
12/13/18 15:21,505
12/13/18 15:21,508
12/13/18 15:21,509
12/13/18 15:21,509
12/13/18 15:21,510
12/13/18 15:21,507
12/13/18 15:21,507
12/13/18 15:21,508
12/13/18 15:21,505
12/13/18 15:21,507
12/13/18 15:21,508
12/13/18 15:21,507
12/13/18 15:21,507
12/13/18 15:21,511
12/13/18 15:21,515
12/13/18 15:21,517
12/13/18 15:21,513
12/13/18 15:21,509
12/13/18 15:21,507
12/13/18 15:21,506
12/13/18 15:21,502
12/13/18 15:21,502
12/13/18 15:21,500
12/13/18 15:21,500
12/13/18 15:21,503
12/13/18 15:21,504
12/13/18 15:21,507
12/13/18 15:21,506
12/13/18 15:21,508
12/13/18 15:21,508
12/13/18 15:21,510
12/13/18 15:21,510
12/13/18 15:21,509
12/13/18 15:21,511
12/13/18 15:21,510
12/13/18 15:21,510
12/13/18 15:21,512
12/13/18 15:21,511
12/13/18 15:21,509
12/13/18 15:21,510
12/13/18 15:21,509
12/13/18 15:21,512
12/13/18 15:21,509
12/13/18 15:21,510
12/13/18 15:21,510
12/13/18 15:21,509
12/13/18 15:21,508
12/13/18 15:21,508
12/13/18 15:21,508
12/13/18 15:21,506
12/13/18 15:21,507
12/13/18 15:21,507
12/13/18 15:21,506
12/13/18 15:21,509
12/13/18 15:21,506
12/13/18 15:21,507
12/13/18 15:21,508
12/13/18 15:21,507
12/13/18 15:21,509
12/13/18 15:21,507
12/13/18 15:21,505
12/13/18 15:21,507
12/13/18 15:21,506
12/13/18 15:21,509
12/13/18 15:21,505
12/13/18 15:21,505
12/13/18 15:21,506
12/13/18 15:21,519
12/13/18 15:21,515
12/13/18 15:21,511
12/13/18 15:21,509
12/13/18 15:21,509
12/13/18 15:21,506
12/13/18 15:21,505
12/13/18 15:21,503
12/13/18 15:21,503
12/13/18 15:21,503
12/13/18 15:21,504
12/13/18 15:21,502
12/13/18 15:21,506
12/13/18 15:21,505
12/13/18 15:21,507
12/13/18 15:21,507
12/13/18 15:21,509
12/13/18 15:21,511
12/13/18 15:21,509
12/13/18 15:21,511
12/13/18 15:21,511
12/13/18 15:21,510
12/13/18 15:21,511
12/13/18 15:21,509
12/13/18 15:21,509
12/13/18 15:21,510
12/13/18 15:21,511
12/13/18 15:21,509
12/13/18 15:21,510
12/13/18 15:21,510
12/13/18 15:21,507
12/13/18 15:21,510
12/13/18 15:21,507
12/13/18 15:21,508
12/13/18 15:21,509
12/13/18 15:21,509
12/13/18 15:21,509
12/13/18 15:21,505
12/13/18 15:21,508
12/13/18 15:21,507
12/13/18 15:21,507
12/13/18 15:21,509
12/13/18 15:21,507
12/13/18 15:21,506
12/13/18 15:21,508
12/13/18 15:21,508
12/13/18 15:21,507
12/13/18 15:21,507
12/13/18 15:21,508
12/13/18 15:21,508
12/13/18 15:21,507
12/13/18 15:21,508
12/13/18 15:21,501
12/13/18 15:21,520
12/13/18 15:21,513
12/13/18 15:30,508
12/13/18 15:30,508
12/13/18 15:30,508
12/13/18 15:30,506
12/13/18 15:30,508
12/13/18 15:30,508
12/13/18 15:30,508
12/13/18 15:30,506
12/13/18 15:30,505
12/13/18 15:30,507
12/13/18 15:30,506
12/13/18 15:30,507
12/13/18 15:30,506
12/13/18 15:30,509
12/13/18 15:30,507
12/13/18 15:30,505
12/13/18 15:30,506
12/13/18 15:30,507
12/13/18 15:30,506
12/13/18 15:30,497
12/13/18 15:30,521
12/13/18 15:30,515
12/13/18 15:30,510
12/13/18 15:30,509
12/13/18 15:30,506
12/13/18 15:30,503
12/13/18 15:30,505
12/13/18 15:30,501
12/13/18 15:30,501
12/13/18 15:30,501
12/13/18 15:30,502
12/13/18 15:30,502
12/13/18 15:30,504
12/13/18 15:30,507
12/13/18 15:30,509
12/13/18 15:30,509
12/13/18 15:30,510
12/13/18 15:30,510
12/13/18 15:30,511
12/13/18 15:30,511
12/13/18 15:30,509
12/13/18 15:30,514
12/13/18 15:30,511
12/13/18 15:30,511
12/13/18 15:30,509
12/13/18 15:30,510
12/13/18 15:30,511
12/13/18 15:30,510
12/13/18 15:30,510
12/13/18 15:30,509
12/13/18 15:30,508
12/13/18 15:30,511
12/13/18 15:30,510
12/13/18 15:30,510
12/13/18 15:30,507
12/13/18 15:30,507
12/13/18 15:30,507
12/13/18 15:30,508
12/13/18 15:30,507
12/13/18 15:30,507
12/13/18 15:30,507
12/13/18 15:30,504
12/13/18 15:30,505
12/13/18 15:30,508
12/13/18 15:30,509
12/13/18 15:30,508
12/13/18 15:30,509
12/13/18 15:30,507
12/13/18 15:30,509
12/13/18 15:30,507
12/13/18 15:30,507
12/13/18 15:30,489
12/13/18 15:30,518
12/13/18 15:30,522
12/13/18 15:30,516
12/13/18 15:30,512
12/13/18 15:30,509
12/13/18 15:30,506
12/13/18 15:30,504
12/13/18 15:30,502
12/13/18 15:30,499
12/13/18 15:30,500
12/13/18 15:30,501
12/13/18 15:30,505
12/13/18 15:30,507
12/13/18 15:30,505
12/13/18 15:30,506
12/13/18 15:30,508
12/13/18 15:30,510
12/13/18 15:30,510
12/13/18 15:30,510
12/13/18 15:30,510
12/13/18 15:30,510
12/13/18 15:30,513
12/13/18 15:30,510
12/13/18 15:30,511
12/13/18 15:30,510
12/13/18 15:30,509
12/13/18 15:30,512
12/13/18 15:30,508
12/13/18 15:30,506
12/13/18 15:30,510
12/13/18 15:30,509
12/13/18 15:30,509
12/13/18 15:30,509
12/13/18 15:30,509
12/13/18 15:30,509
12/13/18 15:30,507
12/13/18 15:30,509
12/13/18 15:30,506
12/13/18 15:30,507
12/13/18 15:30,508
12/13/18 15:30,506
12/13/18 15:30,508
12/13/18 15:30,506
12/13/18 15:30,507
12/13/18 15:30,507
12/13/18 15:30,508
12/13/18 15:30,509
12/13/18 15:30,506
12/13/18 15:30,508
12/13/18 15:30,508
12/13/18 15:30,509
12/13/18 15:30,506
12/13/18 15:30,502
12/13/18 15:30,517
12/13/18 15:30,514
12/13/18 15:30,510
12/13/18 15:30,508
12/13/18 15:30,507
12/13/18 15:30,504
12/13/18 15:30,501
12/13/18 15:30,502
12/13/18 15:30,504
12/13/18 15:30,501
12/13/18 15:30,504
12/13/18 15:30,505
12/13/18 15:30,506
12/13/18 15:30,508
12/13/18 15:30,506
12/13/18 15:30,508
12/13/18 15:30,509
12/13/18 15:30,508
12/13/18 15:30,510
12/13/18 15:30,511
12/13/18 15:30,508
12/13/18 15:30,510
12/13/18 15:30,512
12/13/18 15:30,511
12/13/18 15:30,510
12/13/18 15:30,511
12/13/18 15:30,510
12/13/18 15:30,511
12/13/18 15:30,510
12/13/18 15:30,510
12/13/18 15:30,510
12/13/18 15:30,507
12/13/18 15:30,509
12/13/18 15:30,507
12/13/18 15:30,508
12/13/18 15:30,509
12/13/18 15:30,507
12/13/18 15:30,507
12/13/18 15:30,506
12/13/18 15:30,508
12/13/18 15:30,508
12/13/18 15:30,508
12/13/18 15:30,508
12/13/18 15:30,508
12/13/18 15:30,506
12/13/18 15:30,508
12/13/18 15:30,507
12/13/18 15:30,508
12/13/18 15:30,507
12/13/18 15:30,508
12/13/18 15:30,507
12/13/18 15:30,511
12/13/18 15:30,519
12/13/18 15:30,510
12/13/18 15:30,507
12/13/18 15:30,509
12/13/18 15:30,507
12/13/18 15:30,506
12/13/18 15:30,501
12/13/18 15:30,501
12/13/18 15:30,503
12/13/18 15:30,503
12/13/18 15:30,503
12/13/18 15:30,505
12/13/18 15:30,505
12/13/18 15:30,507
12/13/18 15:30,506
12/13/18 15:30,507
12/13/18 15:30,508
12/13/18 15:30,509
12/13/18 15:30,509
12/13/18 15:30,510
12/13/18 15:30,513
12/13/18 15:30,511
12/13/18 15:30,509
12/13/18 15:30,511
12/13/18 15:30,510
12/13/18 15:30,512
12/13/18 15:30,512
12/13/18 15:30,509
12/13/18 15:30,510
12/13/18 15:30,508
12/13/18 15:30,510
12/13/18 15:30,508
12/13/18 15:30,508
12/13/18 15:30,509
12/13/18 15:30,506
12/13/18 15:30,509
12/13/18 15:30,508
12/13/18 15:30,507
12/13/18 15:30,508
12/13/18 15:30,507
12/13/18 15:30,508
12/13/18 15:30,506
12/13/18 15:30,507
12/13/18 15:30,509
12/13/18 15:30,506
12/13/18 15:30,507
12/13/18 15:30,507
12/13/18 15:30,509
12/13/18 15:30,510
12/13/18 15:30,507
12/13/18 15:30,505
12/13/18 15:30,502
12/13/18 15:30,520
12/13/18 15:30,512
12/13/18 15:30,509
12/13/18 15:30,510
12/13/18 15:30,507
12/13/18 15:30,504
12/13/18 15:30,503
12/13/18 15:30,499
12/13/18 15:30,501
12/13/18 15:30,503
12/13/18 15:30,505
12/13/18 15:30,505
12/13/18 15:30,507
12/13/18 15:30,507
12/13/18 15:30,509
12/13/18 15:30,509
12/13/18 15:30,508
12/13/18 15:30,510
12/13/18 15:30,509
12/13/18 15:30,511
12/13/18 15:30,511
12/13/18 15:30,509
12/13/18 15:30,511
12/13/18 15:30,511
12/13/18 15:30,510
12/13/18 15:30,511
12/13/18 15:30,508
12/13/18 15:30,510
12/13/18 15:30,511
12/13/18 15:30,508
12/13/18 15:30,508
12/13/18 15:30,509
12/13/18 15:30,509
12/13/18 15:30,506
12/13/18 15:30,507
12/13/18 15:30,508
12/13/18 15:30,508
12/13/18 15:30,507
12/13/18 15:30,508
12/13/18 15:30,507
12/13/18 15:30,508
12/13/18 15:30,508
12/13/18 15:30,507
12/13/18 15:30,509
12/13/18 15:30,508
12/13/18 15:30,508
12/13/18 15:30,508
12/13/18 15:30,507
12/13/18 15:30,508
12/13/18 15:30,507
12/13/18 15:30,508
12/13/18 15:30,510
12/13/18 15:30,514
12/13/18 15:30,514
12/13/18 15:30,512
12/13/18 15:30,508
12/13/18 15:30,505
12/13/18 15:30,503
12/13/18 15:30,501
12/13/18 15:30,501
12/13/18 15:30,504
12/13/18 15:30,503
12/13/18 15:30,505
12/13/18 15:30,505
12/13/18 15:30,505
12/13/18 15:30,506
12/13/18 15:30,507
12/13/18 15:30,508
12/13/18 15:30,509
12/13/18 15:30,507
12/13/18 15:30,508
12/13/18 15:30,509
12/13/18 15:30,513
12/13/18 15:30,514
12/13/18 15:30,512
12/13/18 15:30,513
12/13/18 15:30,510
12/13/18 15:30,511
12/13/18 15:30,511
12/13/18 15:30,508
12/13/18 15:30,510
12/13/18 15:30,509
12/13/18 15:30,510
12/13/18 15:30,508
12/13/18 15:30,508
12/13/18 15:30,510
12/13/18 15:30,506
12/13/18 15:30,508
12/13/18 15:30,506
12/13/18 15:30,506
12/13/18 15:30,507
12/13/18 15:30,507
12/13/18 15:30,508
12/13/18 15:30,507
12/13/18 15:30,507
12/13/18 15:30,508
12/13/18 15:30,505
12/13/18 15:30,509
12/13/18 15:30,509
12/13/18 15:30,506
12/13/18 15:30,506
12/13/18 15:30,507
12/13/18 15:30,509
12/13/18 15:30,505
12/13/18 15:30,496
12/13/18 15:30,520
12/13/18 15:30,515
12/13/18 15:30,512
12/13/18 15:30,510
12/13/18 15:30,508
12/13/18 15:30,506
12/13/18 15:30,502
12/13/18 15:30,501
12/13/18 15:30,502
12/13/18 15:30,503
12/13/18 15:30,504
12/13/18 15:30,505
12/13/18 15:30,505
12/13/18 15:30,505
12/13/18 15:30,507
12/13/18 15:30,508
12/13/18 15:30,507
12/13/18 15:30,509
12/13/18 15:30,509
12/13/18 15:30,510
12/13/18 15:30,511
12/13/18 15:30,511
12/13/18 15:30,512
12/13/18 15:30,510
12/13/18 15:30,511
12/13/18 15:30,510
12/13/18 15:30,508
12/13/18 15:30,509
12/13/18 15:30,510
12/13/18 15:30,510
12/13/18 15:30,508
12/13/18 15:30,507
12/13/18 15:30,509
12/13/18 15:30,508
12/13/18 15:30,509
12/13/18 15:30,507
12/13/18 15:30,505
12/13/18 15:30,508
12/13/18 15:30,508
12/13/18 15:30,510
12/13/18 15:30,506
12/13/18 15:30,508
12/13/18 15:30,509
12/13/18 15:30,507
12/13/18 15:30,508
12/13/18 15:30,509
12/13/18 15:30,510
12/13/18 15:30,508
12/13/18 15:30,507
12/13/18 15:30,509
12/13/18 15:30,506
12/13/18 15:30,508
12/13/18 15:30,518
12/13/18 15:30,514
12/13/18 15:30,510
12/13/18 15:30,509
12/13/18 15:30,508
12/13/18 15:30,509
12/13/18 15:30,505
12/13/18 15:30,502
12/13/18 15:30,502
12/13/18 15:30,500
12/13/18 15:30,502
12/13/18 15:30,503
12/13/18 15:30,505
12/13/18 15:30,506
12/13/18 15:30,508
12/13/18 15:30,507
12/13/18 15:30,509
12/13/18 15:30,510
12/13/18 15:30,509
12/13/18 15:30,510
12/13/18 15:30,512
12/13/18 15:30,511
12/13/18 15:30,512
12/13/18 15:30,509
12/13/18 15:30,510
12/13/18 15:30,508
12/13/18 15:30,510
12/13/18 15:30,510
12/13/18 15:30,510
12/13/18 15:30,510
12/13/18 15:30,510
12/13/18 15:30,508
12/13/18 15:30,511
12/13/18 15:30,509
12/13/18 15:30,509
12/13/18 15:30,508
12/13/18 15:30,508
12/13/18 15:30,507
12/13/18 15:30,509
12/13/18 15:30,508
12/13/18 15:30,506
12/13/18 15:30,508
12/13/18 15:30,508
12/13/18 15:30,507
12/13/18 15:30,508
12/13/18 15:30,508
12/13/18 15:30,507
12/13/18 15:30,508
12/13/18 15:30,505
12/13/18 15:30,507
12/13/18 15:30,507
12/13/18 15:30,505
12/13/18 15:30,531
12/13/18 15:30,513
12/13/18 15:30,505
12/13/18 15:30,504
12/13/18 15:30,504
12/13/18 15:30,505
12/13/18 15:30,504
12/13/18 15:30,505
12/13/18 15:30,504
12/13/18 15:30,499
12/13/18 15:30,503
12/13/18 15:30,502
12/13/18 15:30,506
12/13/18 15:30,505
12/13/18 15:30,506
12/13/18 15:30,509
12/13/18 15:30,508
12/13/18 15:30,509
12/13/18 15:30,509
12/13/18 15:30,511
12/13/18 15:30,511
12/13/18 15:30,511
12/13/18 15:30,511
12/13/18 15:30,511
12/13/18 15:30,512
12/13/18 15:30,512
12/13/18 15:30,509
12/13/18 15:30,511
12/13/18 15:30,510
12/13/18 15:30,509
12/13/18 15:30,509
12/13/18 15:30,508
12/13/18 15:30,510
12/13/18 15:30,508
12/13/18 15:30,509
12/13/18 15:30,508
12/13/18 15:30,507
12/13/18 15:30,508
12/13/18 15:30,507
12/13/18 15:30,506
12/13/18 15:30,507
12/13/18 15:30,506
12/13/18 15:30,508
12/13/18 15:30,507
12/13/18 15:30,509
12/13/18 15:30,506
12/13/18 15:30,508
12/13/18 15:30,506
12/13/18 15:30,505
12/13/18 15:30,507
12/13/18 15:30,508
12/13/18 15:30,506
12/13/18 15:30,493
12/13/18 15:30,523
12/13/18 15:30,518
12/13/18 15:30,513
12/13/18 15:30,508
12/13/18 15:30,510
12/13/18 15:30,507
12/13/18 15:30,504
12/13/18 15:30,500
12/13/18 15:30,501
12/13/18 15:30,503
12/13/18 15:30,504
12/13/18 15:30,505
12/13/18 15:30,506
12/13/18 15:30,507
12/13/18 15:30,507
12/13/18 15:30,509
12/13/18 15:30,510
12/13/18 15:30,509
12/13/18 15:30,510
12/13/18 15:30,510
12/13/18 15:30,509
12/13/18 15:30,510
12/13/18 15:30,509
12/13/18 15:30,510
12/13/18 15:30,510
12/13/18 15:30,509
12/13/18 15:30,509
12/13/18 15:30,510
12/13/18 15:30,511
12/13/18 15:30,510
12/13/18 15:30,509
12/13/18 15:30,510
12/13/18 15:30,511
12/13/18 15:30,510
12/13/18 15:30,509
12/13/18 15:30,508
12/13/18 15:30,507
12/13/18 15:30,505
12/13/18 15:30,506
12/13/18 15:30,508
12/13/18 15:30,505
12/13/18 15:30,506
12/13/18 15:30,507
12/13/18 15:30,510
12/13/18 15:30,507
12/13/18 15:30,510
12/13/18 15:30,508
12/13/18 15:30,508
12/13/18 15:30,509
12/13/18 15:30,508
12/13/18 15:30,510
12/13/18 15:30,508
12/13/18 15:30,508
12/13/18 15:30,507
12/13/18 15:30,506
12/13/18 15:30,511
12/13/18 15:30,517
12/13/18 15:30,509
12/13/18 15:30,509
12/13/18 15:30,505
12/13/18 15:30,509
12/13/18 15:30,506
12/13/18 15:30,502
12/13/18 15:30,505
12/13/18 15:30,500
12/13/18 15:30,502
12/13/18 15:30,503
12/13/18 15:30,504
12/13/18 15:30,506
12/13/18 15:30,506
12/13/18 15:30,506
12/13/18 15:30,507
12/13/18 15:30,508
12/13/18 15:30,508
12/13/18 15:30,510
12/13/18 15:30,512
12/13/18 15:30,512
12/13/18 15:30,511
12/13/18 15:30,512
12/13/18 15:30,511
12/13/18 15:30,512
12/13/18 15:30,512
12/13/18 15:30,513
12/13/18 15:30,510
12/13/18 15:30,508
12/13/18 15:30,511
12/13/18 15:30,510
12/13/18 15:30,510
12/13/18 15:30,509
12/13/18 15:30,507
12/13/18 15:30,509
12/13/18 15:30,509
12/13/18 15:30,507
12/13/18 15:30,506
12/13/18 15:30,506
12/13/18 15:30,505
12/13/18 15:30,507
12/13/18 15:30,508
12/13/18 15:30,507
12/13/18 15:30,508
12/13/18 15:30,509
12/13/18 15:30,507
12/13/18 15:30,507
12/13/18 15:30,508
12/13/18 15:30,509
12/13/18 15:30,509
12/13/18 15:30,504
12/13/18 15:30,510
12/13/18 15:30,516
12/13/18 15:39,510
12/13/18 15:39,510
12/13/18 15:39,511
12/13/18 15:39,507
12/13/18 15:39,509
12/13/18 15:39,506
12/13/18 15:39,510
12/13/18 15:39,509
12/13/18 15:39,507
12/13/18 15:39,510
12/13/18 15:39,506
12/13/18 15:39,507
12/13/18 15:39,507
12/13/18 15:39,506
12/13/18 15:39,509
12/13/18 15:39,508
12/13/18 15:39,507
12/13/18 15:39,507
12/13/18 15:39,506
12/13/18 15:39,509
12/13/18 15:39,507
12/13/18 15:39,508
12/13/18 15:39,504
12/13/18 15:39,507
12/13/18 15:39,509
12/13/18 15:39,507
12/13/18 15:39,506
12/13/18 15:39,490
12/13/18 15:39,521
12/13/18 15:39,520
12/13/18 15:39,513
12/13/18 15:39,511
12/13/18 15:39,506
12/13/18 15:39,507
12/13/18 15:39,507
12/13/18 15:39,504
12/13/18 15:39,500
12/13/18 15:39,501
12/13/18 15:39,502
12/13/18 15:39,504
12/13/18 15:39,502
12/13/18 15:39,508
12/13/18 15:39,506
12/13/18 15:39,508
12/13/18 15:39,509
12/13/18 15:39,508
12/13/18 15:39,511
12/13/18 15:39,509
12/13/18 15:39,510
12/13/18 15:39,513
12/13/18 15:39,511
12/13/18 15:39,513
12/13/18 15:39,510
12/13/18 15:39,509
12/13/18 15:39,511
12/13/18 15:39,507
12/13/18 15:39,511
12/13/18 15:39,511
12/13/18 15:39,511
12/13/18 15:39,509
12/13/18 15:39,508
12/13/18 15:39,509
12/13/18 15:39,506
12/13/18 15:39,507
12/13/18 15:39,508
12/13/18 15:39,503
12/13/18 15:39,508
12/13/18 15:39,505
12/13/18 15:39,509
12/13/18 15:39,509
12/13/18 15:39,506
12/13/18 15:39,511
12/13/18 15:39,506
12/13/18 15:39,507
12/13/18 15:39,509
12/13/18 15:39,506
12/13/18 15:39,510
12/13/18 15:39,507
12/13/18 15:39,505
12/13/18 15:39,487
12/13/18 15:39,522
12/13/18 15:39,519
12/13/18 15:39,510
12/13/18 15:39,509
12/13/18 15:39,510
12/13/18 15:39,506
12/13/18 15:39,507
12/13/18 15:39,501
12/13/18 15:39,503
12/13/18 15:39,503
12/13/18 15:39,503
12/13/18 15:39,506
12/13/18 15:39,504
12/13/18 15:39,505
12/13/18 15:39,507
12/13/18 15:39,506
12/13/18 15:39,510
12/13/18 15:39,508
12/13/18 15:39,510
12/13/18 15:39,509
12/13/18 15:39,508
12/13/18 15:39,513
12/13/18 15:39,507
12/13/18 15:39,510
12/13/18 15:39,511
12/13/18 15:39,510
12/13/18 15:39,513
12/13/18 15:39,510
12/13/18 15:39,512
12/13/18 15:39,510
12/13/18 15:39,508
12/13/18 15:39,511
12/13/18 15:39,509
12/13/18 15:39,510
12/13/18 15:39,507
12/13/18 15:39,507
12/13/18 15:39,509
12/13/18 15:39,506
12/13/18 15:39,507
12/13/18 15:39,505
12/13/18 15:39,507
12/13/18 15:39,508
12/13/18 15:39,506
12/13/18 15:39,509
12/13/18 15:39,507
12/13/18 15:39,508
12/13/18 15:39,507
12/13/18 15:39,505
12/13/18 15:39,508
12/13/18 15:39,506
12/13/18 15:39,506
12/13/18 15:39,507
12/13/18 15:39,516
12/13/18 15:39,518
12/13/18 15:39,511
12/13/18 15:39,509
12/13/18 15:39,510
12/13/18 15:39,505
12/13/18 15:39,505
12/13/18 15:39,500
12/13/18 15:39,503
12/13/18 15:39,503
12/13/18 15:39,502
12/13/18 15:39,508
12/13/18 15:39,506
12/13/18 15:39,509
12/13/18 15:39,508
12/13/18 15:39,508
12/13/18 15:39,509
12/13/18 15:39,508
12/13/18 15:39,511
12/13/18 15:39,510
12/13/18 15:39,509
12/13/18 15:39,512
12/13/18 15:39,510
12/13/18 15:39,512
12/13/18 15:39,509
12/13/18 15:39,509
12/13/18 15:39,509
12/13/18 15:39,507
12/13/18 15:39,511
12/13/18 15:39,509
12/13/18 15:39,508
12/13/18 15:39,510
12/13/18 15:39,508
12/13/18 15:39,510
12/13/18 15:39,509
12/13/18 15:39,508
12/13/18 15:39,510
12/13/18 15:39,506
12/13/18 15:39,508
12/13/18 15:39,506
12/13/18 15:39,507
12/13/18 15:39,507
12/13/18 15:39,505
12/13/18 15:39,509
12/13/18 15:39,507
12/13/18 15:39,507
12/13/18 15:39,507
12/13/18 15:39,507
12/13/18 15:39,509
12/13/18 15:39,507
12/13/18 15:39,509
12/13/18 15:39,507
12/13/18 15:39,506
12/13/18 15:39,519
12/13/18 15:39,512
12/13/18 15:39,511
12/13/18 15:39,509
12/13/18 15:39,505
12/13/18 15:39,505
12/13/18 15:39,502
12/13/18 15:39,503
12/13/18 15:39,504
12/13/18 15:39,502
12/13/18 15:39,506
12/13/18 15:39,503
12/13/18 15:39,506
12/13/18 15:39,508
12/13/18 15:39,505
12/13/18 15:39,510
12/13/18 15:39,507
12/13/18 15:39,513
12/13/18 15:39,508
12/13/18 15:39,509
12/13/18 15:39,513
12/13/18 15:39,508
12/13/18 15:39,513
12/13/18 15:39,511
12/13/18 15:39,510
12/13/18 15:39,511
12/13/18 15:39,509
12/13/18 15:39,513
12/13/18 15:39,509
12/13/18 15:39,509
12/13/18 15:39,511
12/13/18 15:39,507
12/13/18 15:39,510
12/13/18 15:39,509
12/13/18 15:39,508
12/13/18 15:39,509
12/13/18 15:39,506
12/13/18 15:39,509
12/13/18 15:39,507
12/13/18 15:39,507
12/13/18 15:39,508
12/13/18 15:39,505
12/13/18 15:39,509
12/13/18 15:39,506
12/13/18 15:39,507
12/13/18 15:39,509
12/13/18 15:39,506
12/13/18 15:39,509
12/13/18 15:39,506
12/13/18 15:39,508
12/13/18 15:39,507
12/13/18 15:39,527
12/13/18 15:39,522
12/13/18 15:39,503
12/13/18 15:39,502
12/13/18 15:39,505
12/13/18 15:39,504
12/13/18 15:39,505
12/13/18 15:39,504
12/13/18 15:39,502
12/13/18 15:39,501
12/13/18 15:39,502
12/13/18 15:39,505
12/13/18 15:39,501
12/13/18 15:39,506
12/13/18 15:39,506
12/13/18 15:39,507
12/13/18 15:39,510
12/13/18 15:39,507
12/13/18 15:39,510
12/13/18 15:39,511
12/13/18 15:39,510
12/13/18 15:39,512
12/13/18 15:39,509
12/13/18 15:39,514
12/13/18 15:39,514
12/13/18 15:39,509
12/13/18 15:39,511
12/13/18 15:39,509
12/13/18 15:39,510
12/13/18 15:39,509
12/13/18 15:39,508
12/13/18 15:39,511
12/13/18 15:39,507
12/13/18 15:39,511
12/13/18 15:39,508
12/13/18 15:39,507
12/13/18 15:39,509
12/13/18 15:39,505
12/13/18 15:39,509
12/13/18 15:39,506
12/13/18 15:39,506
12/13/18 15:39,509
12/13/18 15:39,506
12/13/18 15:39,507
12/13/18 15:39,508
12/13/18 15:39,507
12/13/18 15:39,509
12/13/18 15:39,507
12/13/18 15:39,509
12/13/18 15:39,506
12/13/18 15:39,508
12/13/18 15:39,509
12/13/18 15:39,503
12/13/18 15:39,498
12/13/18 15:39,523
12/13/18 15:39,516
12/13/18 15:39,514
12/13/18 15:39,507
12/13/18 15:39,509
12/13/18 15:39,505
12/13/18 15:39,506
12/13/18 15:39,502
12/13/18 15:39,501
12/13/18 15:39,503
12/13/18 15:39,502
12/13/18 15:39,504
12/13/18 15:39,506
12/13/18 15:39,505
12/13/18 15:39,510
12/13/18 15:39,507
12/13/18 15:39,509
12/13/18 15:39,510
12/13/18 15:39,509
12/13/18 15:39,511
12/13/18 15:39,509
12/13/18 15:39,510
12/13/18 15:39,511
12/13/18 15:39,511
12/13/18 15:39,511
