X,Bin ECG
6/5/19 16:09,507
6/5/19 16:09,505
6/5/19 16:09,504
6/5/19 16:09,499
6/5/19 16:09,506
6/5/19 16:09,501
6/5/19 16:09,503
6/5/19 16:09,503
6/5/19 16:09,501
6/5/19 16:09,556
6/5/19 16:09,595
6/5/19 16:09,566
6/5/19 16:09,506
6/5/19 16:09,492
6/5/19 16:09,500
6/5/19 16:09,492
6/5/19 16:09,496
6/5/19 16:09,495
6/5/19 16:09,488
6/5/19 16:09,487
6/5/19 16:09,480
6/5/19 16:09,484
6/5/19 16:09,483
6/5/19 16:09,482
6/5/19 16:09,490
6/5/19 16:09,487
6/5/19 16:09,495
6/5/19 16:09,494
6/5/19 16:09,495
6/5/19 16:09,500
6/5/19 16:09,496
6/5/19 16:09,502
6/5/19 16:09,502
6/5/19 16:09,504
6/5/19 16:09,509
6/5/19 16:09,505
6/5/19 16:09,511
6/5/19 16:09,510
6/5/19 16:09,510
6/5/19 16:09,517
6/5/19 16:09,511
6/5/19 16:09,517
6/5/19 16:09,515
6/5/19 16:09,515
6/5/19 16:09,517
6/5/19 16:09,512
6/5/19 16:09,518
6/5/19 16:09,515
6/5/19 16:09,515
6/5/19 16:09,518
6/5/19 16:09,512
6/5/19 16:09,518
6/5/19 16:09,513
6/5/19 16:09,516
6/5/19 16:09,518
6/5/19 16:09,514
6/5/19 16:09,518
6/5/19 16:09,514
6/5/19 16:09,517
6/5/19 16:09,519
6/5/19 16:09,515
6/5/19 16:09,517
6/5/19 16:09,512
6/5/19 16:09,513
6/5/19 16:09,513
6/5/19 16:09,506
6/5/19 16:09,510
6/5/19 16:09,502
6/5/19 16:09,504
6/5/19 16:09,504
6/5/19 16:09,501
6/5/19 16:09,506
6/5/19 16:09,502
6/5/19 16:09,503
6/5/19 16:09,505
6/5/19 16:09,502
6/5/19 16:09,519
6/5/19 16:09,582
6/5/19 16:09,600
6/5/19 16:09,523
6/5/19 16:09,495
6/5/19 16:09,499
6/5/19 16:09,493
6/5/19 16:09,493
6/5/19 16:09,485
6/5/19 16:09,492
6/5/19 16:09,489
6/5/19 16:09,484
6/5/19 16:09,486
6/5/19 16:09,487
6/5/19 16:09,487
6/5/19 16:09,492
6/5/19 16:09,481
6/5/19 16:09,491
6/5/19 16:09,495
6/5/19 16:09,496
6/5/19 16:09,499
6/5/19 16:09,497
6/5/19 16:09,503
6/5/19 16:09,500
6/5/19 16:09,503
6/5/19 16:09,508
6/5/19 16:09,505
6/5/19 16:09,513
6/5/19 16:09,509
6/5/19 16:09,510
6/5/19 16:09,515
6/5/19 16:09,509
6/5/19 16:09,517
6/5/19 16:09,513
6/5/19 16:09,514
6/5/19 16:09,516
6/5/19 16:09,513
6/5/19 16:09,516
6/5/19 16:09,513
6/5/19 16:09,517
6/5/19 16:09,515
6/5/19 16:09,512
6/5/19 16:09,518
6/5/19 16:09,515
6/5/19 16:09,516
6/5/19 16:09,517
6/5/19 16:09,511
6/5/19 16:09,519
6/5/19 16:09,514
6/5/19 16:09,516
6/5/19 16:09,519
6/5/19 16:09,514
6/5/19 16:09,519
6/5/19 16:09,511
6/5/19 16:09,514
6/5/19 16:09,511
6/5/19 16:09,505
6/5/19 16:09,510
6/5/19 16:09,502
6/5/19 16:09,506
6/5/19 16:09,505
6/5/19 16:09,501
6/5/19 16:09,505
6/5/19 16:09,502
6/5/19 16:09,506
6/5/19 16:09,505
6/5/19 16:09,510
6/5/19 16:09,582
6/5/19 16:09,598
6/5/19 16:09,526
6/5/19 16:09,497
6/5/19 16:09,491
6/5/19 16:09,496
6/5/19 16:09,486
6/5/19 16:09,491
6/5/19 16:09,491
6/5/19 16:09,486
6/5/19 16:09,486
6/5/19 16:09,483
6/5/19 16:09,489
6/5/19 16:09,487
6/5/19 16:09,487
6/5/19 16:09,493
6/5/19 16:09,487
6/5/19 16:09,496
6/5/19 16:09,493
6/5/19 16:09,496
6/5/19 16:09,501
6/5/19 16:09,496
6/5/19 16:09,504
6/5/19 16:09,503
6/5/19 16:09,504
6/5/19 16:09,508
6/5/19 16:09,506
6/5/19 16:09,513
6/5/19 16:09,509
6/5/19 16:09,511
6/5/19 16:09,513
6/5/19 16:09,511
6/5/19 16:09,517
6/5/19 16:09,514
6/5/19 16:09,515
6/5/19 16:09,516
6/5/19 16:09,512
6/5/19 16:09,519
6/5/19 16:09,514
6/5/19 16:09,516
6/5/19 16:09,515
6/5/19 16:09,512
6/5/19 16:09,519
6/5/19 16:09,513
6/5/19 16:09,518
6/5/19 16:09,519
6/5/19 16:09,513
6/5/19 16:09,519
6/5/19 16:09,514
6/5/19 16:09,517
6/5/19 16:09,518
6/5/19 16:09,513
6/5/19 16:09,517
6/5/19 16:09,509
6/5/19 16:09,510
6/5/19 16:09,509
6/5/19 16:09,505
6/5/19 16:09,508
6/5/19 16:09,502
6/5/19 16:09,505
6/5/19 16:09,503
6/5/19 16:09,501
6/5/19 16:09,506
6/5/19 16:09,501
6/5/19 16:09,506
6/5/19 16:09,505
6/5/19 16:09,570
6/5/19 16:09,608
6/5/19 16:09,536
6/5/19 16:09,502
6/5/19 16:09,493
6/5/19 16:09,495
6/5/19 16:09,494
6/5/19 16:09,490
6/5/19 16:09,491
6/5/19 16:09,485
6/5/19 16:09,487
6/5/19 16:09,487
6/5/19 16:09,483
6/5/19 16:09,489
6/5/19 16:09,488
6/5/19 16:09,488
6/5/19 16:09,495
6/5/19 16:09,491
6/5/19 16:09,498
6/5/19 16:09,494
6/5/19 16:09,497
6/5/19 16:09,501
6/5/19 16:09,499
6/5/19 16:09,505
6/5/19 16:09,503
6/5/19 16:09,507
6/5/19 16:09,510
6/5/19 16:09,507
6/5/19 16:09,515
6/5/19 16:09,510
6/5/19 16:09,514
6/5/19 16:09,516
6/5/19 16:09,509
6/5/19 16:09,518
6/5/19 16:09,514
6/5/19 16:09,514
6/5/19 16:09,515
6/5/19 16:09,504
6/5/19 16:09,519
6/5/19 16:09,516
6/5/19 16:09,517
6/5/19 16:09,517
6/5/19 16:09,514
6/5/19 16:09,520
6/5/19 16:09,515
6/5/19 16:09,519
6/5/19 16:09,517
6/5/19 16:09,514
6/5/19 16:09,519
6/5/19 16:09,513
6/5/19 16:09,519
6/5/19 16:09,517
6/5/19 16:09,513
6/5/19 16:09,517
6/5/19 16:09,506
6/5/19 16:09,509
6/5/19 16:09,506
6/5/19 16:09,503
6/5/19 16:09,508
6/5/19 16:09,501
6/5/19 16:09,505
6/5/19 16:09,502
6/5/19 16:09,502
6/5/19 16:09,507
6/5/19 16:09,501
6/5/19 16:09,507
6/5/19 16:09,562
6/5/19 16:09,602
6/5/19 16:09,557
6/5/19 16:09,501
6/5/19 16:09,496
6/5/19 16:09,490
6/5/19 16:09,492
6/5/19 16:09,489
6/5/19 16:09,483
6/5/19 16:09,491
6/5/19 16:09,485
6/5/19 16:09,487
6/5/19 16:09,490
6/5/19 16:09,484
6/5/19 16:09,492
6/5/19 16:09,489
6/5/19 16:09,491
6/5/19 16:09,495
6/5/19 16:09,490
6/5/19 16:09,499
6/5/19 16:09,496
6/5/19 16:09,502
6/5/19 16:09,504
6/5/19 16:09,499
6/5/19 16:09,506
6/5/19 16:09,503
6/5/19 16:09,508
6/5/19 16:09,511
6/5/19 16:09,508
6/5/19 16:09,514
6/5/19 16:09,513
6/5/19 16:09,514
6/5/19 16:09,515
6/5/19 16:09,511
6/5/19 16:09,518
6/5/19 16:09,514
6/5/19 16:09,517
6/5/19 16:09,516
6/5/19 16:09,511
6/5/19 16:09,518
6/5/19 16:09,513
6/5/19 16:09,518
6/5/19 16:09,514
6/5/19 16:09,503
6/5/19 16:09,517
6/5/19 16:09,514
6/5/19 16:09,520
6/5/19 16:09,518
6/5/19 16:09,518
6/5/19 16:09,520
6/5/19 16:09,515
6/5/19 16:09,518
6/5/19 16:09,514
6/5/19 16:09,509
6/5/19 16:09,512
6/5/19 16:09,507
6/5/19 16:09,510
6/5/19 16:09,506
6/5/19 16:09,505
6/5/19 16:09,506
6/5/19 16:09,500
6/5/19 16:09,504
6/5/19 16:09,501
6/5/19 16:09,503
6/5/19 16:09,505
6/5/19 16:09,507
6/5/19 16:09,581
6/5/19 16:09,601
6/5/19 16:09,528
6/5/19 16:09,498
6/5/19 16:09,491
6/5/19 16:09,500
6/5/19 16:09,493
6/5/19 16:09,490
6/5/19 16:09,494
6/5/19 16:09,491
6/5/19 16:09,488
6/5/19 16:09,481
6/5/19 16:09,483
6/5/19 16:09,486
6/5/19 16:09,483
6/5/19 16:09,491
6/5/19 16:09,489
6/5/19 16:09,493
6/5/19 16:09,496
6/5/19 16:09,493
6/5/19 16:09,502
6/5/19 16:09,498
6/5/19 16:09,503
6/5/19 16:09,503
6/5/19 16:09,503
6/5/19 16:09,509
6/5/19 16:09,505
6/5/19 16:09,511
6/5/19 16:09,513
6/5/19 16:09,509
6/5/19 16:09,516
6/5/19 16:09,511
6/5/19 16:09,515
6/5/19 16:09,515
6/5/19 16:09,513
6/5/19 16:09,518
6/5/19 16:09,514
6/5/19 16:09,516
6/5/19 16:09,515
6/5/19 16:09,515
6/5/19 16:09,517
6/5/19 16:09,513
6/5/19 16:09,518
6/5/19 16:09,516
6/5/19 16:09,514
6/5/19 16:09,520
6/5/19 16:09,513
6/5/19 16:09,517
6/5/19 16:09,515
6/5/19 16:09,515
6/5/19 16:09,521
6/5/19 16:09,513
6/5/19 16:09,517
6/5/19 16:09,513
6/5/19 16:09,508
6/5/19 16:09,511
6/5/19 16:09,505
6/5/19 16:09,509
6/5/19 16:09,505
6/5/19 16:09,502
6/5/19 16:09,505
6/5/19 16:09,500
6/5/19 16:09,507
6/5/19 16:09,502
6/5/19 16:09,503
6/5/19 16:09,506
6/5/19 16:09,500
6/5/19 16:09,543
6/5/19 16:09,595
6/5/19 16:09,579
6/5/19 16:09,513
6/5/19 16:09,494
6/5/19 16:09,496
6/5/19 16:09,494
6/5/19 16:09,490
6/5/19 16:09,488
6/5/19 16:09,483
6/5/19 16:09,485
6/5/19 16:09,484
6/5/19 16:09,486
6/5/19 16:09,489
6/5/19 16:09,487
6/5/19 16:09,493
6/5/19 16:09,489
6/5/19 16:09,494
6/5/19 16:09,494
6/5/19 16:09,493
6/5/19 16:09,501
6/5/19 16:09,497
6/5/19 16:09,503
6/5/19 16:09,503
6/5/19 16:09,502
6/5/19 16:09,508
6/5/19 16:09,505
6/5/19 16:09,509
6/5/19 16:09,510
6/5/19 16:09,512
6/5/19 16:09,516
6/5/19 16:09,511
6/5/19 16:09,517
6/5/19 16:09,515
6/5/19 16:09,514
6/5/19 16:09,518
6/5/19 16:09,511
6/5/19 16:09,517
6/5/19 16:09,515
6/5/19 16:09,513
6/5/19 16:09,519
6/5/19 16:09,511
6/5/19 16:09,517
6/5/19 16:09,516
6/5/19 16:09,516
6/5/19 16:09,520
6/5/19 16:09,512
6/5/19 16:09,520
6/5/19 16:09,516
6/5/19 16:09,515
6/5/19 16:09,518
6/5/19 16:09,513
6/5/19 16:09,516
6/5/19 16:09,511
6/5/19 16:09,509
6/5/19 16:09,511
6/5/19 16:09,504
6/5/19 16:09,508
6/5/19 16:09,504
6/5/19 16:09,502
6/5/19 16:09,506
6/5/19 16:09,501
6/5/19 16:09,505
6/5/19 16:09,502
6/5/19 16:09,504
6/5/19 16:09,507
6/5/19 16:09,522
6/5/19 16:09,592
6/5/19 16:09,590
6/5/19 16:09,516
6/5/19 16:09,496
6/5/19 16:09,491
6/5/19 16:09,497
6/5/19 16:09,489
6/5/19 16:09,489
6/5/19 16:09,489
6/5/19 16:09,485
6/5/19 16:09,494
6/5/19 16:09,486
6/5/19 16:09,487
6/5/19 16:09,487
6/5/19 16:09,486
6/5/19 16:09,492
6/5/19 16:09,488
6/5/19 16:09,494
6/5/19 16:09,495
6/5/19 16:09,493
6/5/19 16:09,500
6/5/19 16:09,497
6/5/19 16:09,504
6/5/19 16:09,503
6/5/19 16:09,504
6/5/19 16:09,510
6/5/19 16:09,505
6/5/19 16:09,511
6/5/19 16:09,511
6/5/19 16:09,511
6/5/19 16:09,514
6/5/19 16:09,512
6/5/19 16:09,516
6/5/19 16:09,516
6/5/19 16:09,514
6/5/19 16:09,519
6/5/19 16:09,511
6/5/19 16:09,518
6/5/19 16:09,514
6/5/19 16:09,516
6/5/19 16:09,519
6/5/19 16:09,513
6/5/19 16:09,516
6/5/19 16:09,514
6/5/19 16:09,514
6/5/19 16:09,519
6/5/19 16:09,513
6/5/19 16:09,520
6/5/19 16:09,515
6/5/19 16:09,516
6/5/19 16:09,518
6/5/19 16:09,512
6/5/19 16:09,518
6/5/19 16:09,509
6/5/19 16:09,512
6/5/19 16:09,510
6/5/19 16:09,503
6/5/19 16:09,509
6/5/19 16:09,504
6/5/19 16:09,503
6/5/19 16:09,505
6/5/19 16:09,500
6/5/19 16:09,505
6/5/19 16:09,501
6/5/19 16:09,505
6/5/19 16:09,506
6/5/19 16:09,506
6/5/19 16:09,578
6/5/19 16:09,602
6/5/19 16:09,531
6/5/19 16:09,498
6/5/19 16:09,487
6/5/19 16:09,500
6/5/19 16:09,490
6/5/19 16:09,494
6/5/19 16:09,490
6/5/19 16:09,485
6/5/19 16:09,489
6/5/19 16:09,482
6/5/19 16:09,486
6/5/19 16:09,487
6/5/19 16:09,487
6/5/19 16:09,493
6/5/19 16:09,490
6/5/19 16:09,496
6/5/19 16:09,495
6/5/19 16:09,495
6/5/19 16:09,502
6/5/19 16:09,498
6/5/19 16:09,503
6/5/19 16:09,503
6/5/19 16:09,503
6/5/19 16:09,509
6/5/19 16:09,505
6/5/19 16:09,510
6/5/19 16:09,510
6/5/19 16:09,511
6/5/19 16:09,517
6/5/19 16:09,511
6/5/19 16:09,518
6/5/19 16:09,513
6/5/19 16:09,513
6/5/19 16:09,519
6/5/19 16:09,513
6/5/19 16:09,517
6/5/19 16:09,515
6/5/19 16:09,515
6/5/19 16:09,518
6/5/19 16:09,513
6/5/19 16:09,517
6/5/19 16:09,515
6/5/19 16:09,516
6/5/19 16:09,518
6/5/19 16:09,512
6/5/19 16:09,517
6/5/19 16:09,517
6/5/19 16:09,516
6/5/19 16:09,519
6/5/19 16:09,513
6/5/19 16:09,516
6/5/19 16:09,511
6/5/19 16:09,509
6/5/19 16:09,509
6/5/19 16:09,504
6/5/19 16:09,508
6/5/19 16:18,483
6/5/19 16:18,473
6/5/19 16:18,465
6/5/19 16:18,490
6/5/19 16:18,500
6/5/19 16:18,502
6/5/19 16:18,504
6/5/19 16:18,504
6/5/19 16:18,501
6/5/19 16:18,500
6/5/19 16:18,497
6/5/19 16:18,477
6/5/19 16:18,480
6/5/19 16:18,499
6/5/19 16:18,509
6/5/19 16:18,511
6/5/19 16:18,512
6/5/19 16:18,513
6/5/19 16:18,511
6/5/19 16:18,512
6/5/19 16:18,510
6/5/19 16:18,511
6/5/19 16:18,512
6/5/19 16:18,511
6/5/19 16:18,514
6/5/19 16:18,510
6/5/19 16:18,513
6/5/19 16:18,514
6/5/19 16:18,498
6/5/19 16:18,521
6/5/19 16:18,518
6/5/19 16:18,520
6/5/19 16:18,517
6/5/19 16:18,516
6/5/19 16:18,514
6/5/19 16:18,511
6/5/19 16:18,515
6/5/19 16:18,513
6/5/19 16:18,509
6/5/19 16:18,515
6/5/19 16:18,511
6/5/19 16:18,514
6/5/19 16:18,514
6/5/19 16:18,512
6/5/19 16:18,511
6/5/19 16:18,507
6/5/19 16:18,508
6/5/19 16:18,507
6/5/19 16:18,506
6/5/19 16:18,508
6/5/19 16:18,484
6/5/19 16:18,510
6/5/19 16:18,510
6/5/19 16:18,491
6/5/19 16:18,501
6/5/19 16:18,507
6/5/19 16:18,513
6/5/19 16:18,512
6/5/19 16:18,511
6/5/19 16:18,520
6/5/19 16:18,582
6/5/19 16:18,592
6/5/19 16:18,514
6/5/19 16:18,497
6/5/19 16:18,497
6/5/19 16:18,484
6/5/19 16:18,498
6/5/19 16:18,493
6/5/19 16:18,495
6/5/19 16:18,493
6/5/19 16:18,491
6/5/19 16:18,495
6/5/19 16:18,492
6/5/19 16:18,494
6/5/19 16:18,474
6/5/19 16:18,486
6/5/19 16:18,497
6/5/19 16:18,497
6/5/19 16:18,481
6/5/19 16:18,505
6/5/19 16:18,508
6/5/19 16:18,510
6/5/19 16:18,507
6/5/19 16:18,508
6/5/19 16:18,507
6/5/19 16:18,506
6/5/19 16:18,509
6/5/19 16:18,506
6/5/19 16:18,510
6/5/19 16:18,509
6/5/19 16:18,510
6/5/19 16:18,511
6/5/19 16:18,510
6/5/19 16:18,514
6/5/19 16:18,511
6/5/19 16:18,513
6/5/19 16:18,514
6/5/19 16:18,513
6/5/19 16:18,514
6/5/19 16:18,513
6/5/19 16:18,513
6/5/19 16:18,515
6/5/19 16:18,511
6/5/19 16:18,517
6/5/19 16:18,514
6/5/19 16:18,514
6/5/19 16:18,494
6/5/19 16:18,501
6/5/19 16:18,522
6/5/19 16:18,524
6/5/19 16:18,523
6/5/19 16:18,522
6/5/19 16:18,518
6/5/19 16:18,516
6/5/19 16:18,511
6/5/19 16:18,510
6/5/19 16:18,509
6/5/19 16:18,505
6/5/19 16:18,507
6/5/19 16:18,504
6/5/19 16:18,501
6/5/19 16:18,505
6/5/19 16:18,502
6/5/19 16:18,507
6/5/19 16:18,504
6/5/19 16:18,504
6/5/19 16:18,488
6/5/19 16:18,535
6/5/19 16:18,599
6/5/19 16:18,569
6/5/19 16:18,509
6/5/19 16:18,500
6/5/19 16:18,496
6/5/19 16:18,500
6/5/19 16:18,493
6/5/19 16:18,489
6/5/19 16:18,494
6/5/19 16:18,491
6/5/19 16:18,491
6/5/19 16:18,493
6/5/19 16:18,494
6/5/19 16:18,496
6/5/19 16:18,494
6/5/19 16:18,496
6/5/19 16:18,495
6/5/19 16:18,498
6/5/19 16:18,496
6/5/19 16:18,496
6/5/19 16:18,473
6/5/19 16:18,489
6/5/19 16:18,508
6/5/19 16:18,513
6/5/19 16:18,513
6/5/19 16:18,514
6/5/19 16:18,513
6/5/19 16:18,515
6/5/19 16:18,513
6/5/19 16:18,512
6/5/19 16:18,515
6/5/19 16:18,510
6/5/19 16:18,514
6/5/19 16:18,513
6/5/19 16:18,513
6/5/19 16:18,516
6/5/19 16:18,511
6/5/19 16:18,506
6/5/19 16:18,499
6/5/19 16:18,514
6/5/19 16:18,520
6/5/19 16:18,519
6/5/19 16:18,524
6/5/19 16:18,519
6/5/19 16:18,518
6/5/19 16:18,518
6/5/19 16:18,513
6/5/19 16:18,517
6/5/19 16:18,515
6/5/19 16:18,514
6/5/19 16:18,514
6/5/19 16:18,510
6/5/19 16:18,512
6/5/19 16:18,508
6/5/19 16:18,508
6/5/19 16:18,507
6/5/19 16:18,500
6/5/19 16:18,514
6/5/19 16:18,510
6/5/19 16:18,510
6/5/19 16:18,509
6/5/19 16:18,505
6/5/19 16:18,505
6/5/19 16:18,503
6/5/19 16:18,505
6/5/19 16:18,504
6/5/19 16:18,504
6/5/19 16:18,557
6/5/19 16:18,594
6/5/19 16:18,554
6/5/19 16:18,499
6/5/19 16:18,490
6/5/19 16:18,491
6/5/19 16:18,492
6/5/19 16:18,491
6/5/19 16:18,492
6/5/19 16:18,488
6/5/19 16:18,486
6/5/19 16:18,486
6/5/19 16:18,491
6/5/19 16:18,494
6/5/19 16:18,495
6/5/19 16:18,498
6/5/19 16:18,497
6/5/19 16:18,499
6/5/19 16:18,497
6/5/19 16:18,497
6/5/19 16:18,499
6/5/19 16:18,498
6/5/19 16:18,495
6/5/19 16:18,497
6/5/19 16:18,493
6/5/19 16:18,508
6/5/19 16:18,513
6/5/19 16:18,517
6/5/19 16:18,514
6/5/19 16:18,515
6/5/19 16:18,517
6/5/19 16:18,515
6/5/19 16:18,517
6/5/19 16:18,516
6/5/19 16:18,514
6/5/19 16:18,516
6/5/19 16:18,515
6/5/19 16:18,515
6/5/19 16:18,514
6/5/19 16:18,511
6/5/19 16:18,513
6/5/19 16:18,512
6/5/19 16:18,514
6/5/19 16:18,513
6/5/19 16:18,514
6/5/19 16:18,515
6/5/19 16:18,513
6/5/19 16:18,509
6/5/19 16:18,512
6/5/19 16:18,520
6/5/19 16:18,521
6/5/19 16:18,517
6/5/19 16:18,516
6/5/19 16:18,510
6/5/19 16:18,503
6/5/19 16:18,496
6/5/19 16:18,503
6/5/19 16:18,510
6/5/19 16:18,509
6/5/19 16:18,509
6/5/19 16:18,507
6/5/19 16:18,506
6/5/19 16:18,507
6/5/19 16:18,506
6/5/19 16:18,508
6/5/19 16:18,507
6/5/19 16:18,508
6/5/19 16:18,509
6/5/19 16:18,509
6/5/19 16:18,573
6/5/19 16:18,596
6/5/19 16:18,520
6/5/19 16:18,500
6/5/19 16:18,496
6/5/19 16:18,498
6/5/19 16:18,492
6/5/19 16:18,488
6/5/19 16:18,492
6/5/19 16:18,487
6/5/19 16:18,490
6/5/19 16:18,491
6/5/19 16:18,492
6/5/19 16:18,461
6/5/19 16:18,490
6/5/19 16:18,502
6/5/19 16:18,504
6/5/19 16:18,504
6/5/19 16:18,502
6/5/19 16:18,502
6/5/19 16:18,503
6/5/19 16:18,502
6/5/19 16:18,502
6/5/19 16:18,492
6/5/19 16:18,509
6/5/19 16:18,513
6/5/19 16:18,510
6/5/19 16:18,512
6/5/19 16:18,513
6/5/19 16:18,510
6/5/19 16:18,512
6/5/19 16:18,511
6/5/19 16:18,511
6/5/19 16:18,500
6/5/19 16:18,498
6/5/19 16:18,513
6/5/19 16:18,515
6/5/19 16:18,518
6/5/19 16:18,518
6/5/19 16:18,518
6/5/19 16:18,520
6/5/19 16:18,516
6/5/19 16:18,516
6/5/19 16:18,494
6/5/19 16:18,520
6/5/19 16:18,523
6/5/19 16:18,519
6/5/19 16:18,518
6/5/19 16:18,520
6/5/19 16:18,517
6/5/19 16:18,517
6/5/19 16:18,512
6/5/19 16:18,514
6/5/19 16:18,508
6/5/19 16:18,506
6/5/19 16:18,489
6/5/19 16:18,486
6/5/19 16:18,512
6/5/19 16:18,514
6/5/19 16:18,513
6/5/19 16:18,514
6/5/19 16:18,507
6/5/19 16:18,510
6/5/19 16:18,507
6/5/19 16:18,506
6/5/19 16:18,508
6/5/19 16:18,505
6/5/19 16:18,532
6/5/19 16:18,588
6/5/19 16:18,570
6/5/19 16:18,505
6/5/19 16:18,491
6/5/19 16:18,494
6/5/19 16:18,493
6/5/19 16:18,487
6/5/19 16:18,490
6/5/19 16:18,486
6/5/19 16:18,490
6/5/19 16:18,482
6/5/19 16:18,487
6/5/19 16:18,496
6/5/19 16:18,498
6/5/19 16:18,502
6/5/19 16:18,500
6/5/19 16:18,502
6/5/19 16:18,501
6/5/19 16:18,498
6/5/19 16:18,499
6/5/19 16:18,498
6/5/19 16:18,499
6/5/19 16:18,503
6/5/19 16:18,502
6/5/19 16:18,506
6/5/19 16:18,504
6/5/19 16:18,506
6/5/19 16:18,508
6/5/19 16:18,509
6/5/19 16:18,512
6/5/19 16:18,496
6/5/19 16:18,520
6/5/19 16:18,518
6/5/19 16:18,518
6/5/19 16:18,521
6/5/19 16:18,514
6/5/19 16:18,514
6/5/19 16:18,515
6/5/19 16:18,514
6/5/19 16:18,515
6/5/19 16:18,511
6/5/19 16:18,513
6/5/19 16:18,513
6/5/19 16:18,511
6/5/19 16:18,515
6/5/19 16:18,513
6/5/19 16:18,514
6/5/19 16:18,513
6/5/19 16:18,513
6/5/19 16:18,515
6/5/19 16:18,512
6/5/19 16:18,514
6/5/19 16:18,511
6/5/19 16:18,508
6/5/19 16:18,490
6/5/19 16:18,501
6/5/19 16:18,513
6/5/19 16:18,513
6/5/19 16:18,513
6/5/19 16:18,512
6/5/19 16:18,508
6/5/19 16:18,511
6/5/19 16:18,507
6/5/19 16:18,508
6/5/19 16:18,507
6/5/19 16:18,506
6/5/19 16:18,508
6/5/19 16:18,546
6/5/19 16:18,592
6/5/19 16:18,564
6/5/19 16:18,501
6/5/19 16:18,494
6/5/19 16:18,491
6/5/19 16:18,493
6/5/19 16:18,483
6/5/19 16:18,493
6/5/19 16:18,498
6/5/19 16:18,491
6/5/19 16:18,493
6/5/19 16:18,494
6/5/19 16:18,479
6/5/19 16:18,486
6/5/19 16:18,495
6/5/19 16:18,499
6/5/19 16:18,499
6/5/19 16:18,498
6/5/19 16:18,501
6/5/19 16:18,499
6/5/19 16:18,501
6/5/19 16:18,501
6/5/19 16:18,492
6/5/19 16:18,511
6/5/19 16:18,498
6/5/19 16:18,500
6/5/19 16:18,490
6/5/19 16:18,518
6/5/19 16:18,526
6/5/19 16:18,522
6/5/19 16:18,522
6/5/19 16:18,519
6/5/19 16:18,518
6/5/19 16:18,516
6/5/19 16:18,512
6/5/19 16:18,515
6/5/19 16:18,513
6/5/19 16:18,510
6/5/19 16:18,513
6/5/19 16:18,511
6/5/19 16:18,514
6/5/19 16:18,512
6/5/19 16:18,512
6/5/19 16:18,512
6/5/19 16:18,509
6/5/19 16:18,513
6/5/19 16:18,513
6/5/19 16:18,513
6/5/19 16:18,515
6/5/19 16:18,490
6/5/19 16:18,511
6/5/19 16:18,517
6/5/19 16:18,520
6/5/19 16:18,520
6/5/19 16:18,515
6/5/19 16:18,515
6/5/19 16:18,510
6/5/19 16:18,508
6/5/19 16:18,505
6/5/19 16:18,503
6/5/19 16:18,506
6/5/19 16:18,496
6/5/19 16:18,506
6/5/19 16:18,512
6/5/19 16:18,510
6/5/19 16:18,511
6/5/19 16:18,507
6/5/19 16:18,525
6/5/19 16:18,588
6/5/19 16:18,579
6/5/19 16:18,508
6/5/19 16:18,490
6/5/19 16:18,475
6/5/19 16:18,482
6/5/19 16:18,487
6/5/19 16:18,493
6/5/19 16:18,492
6/5/19 16:18,493
6/5/19 16:18,494
6/5/19 16:18,494
6/5/19 16:18,497
6/5/19 16:18,497
6/5/19 16:18,499
6/5/19 16:18,498
6/5/19 16:18,496
6/5/19 16:18,498
6/5/19 16:18,495
6/5/19 16:18,499
6/5/19 16:18,498
6/5/19 16:18,498
6/5/19 16:18,501
6/5/19 16:18,501
6/5/19 16:18,505
6/5/19 16:18,503
6/5/19 16:18,501
6/5/19 16:18,516
6/5/19 16:18,503
6/5/19 16:18,504
6/5/19 16:18,513
6/5/19 16:18,517
6/5/19 16:18,520
6/5/19 16:18,519
6/5/19 16:18,521
6/5/19 16:18,516
6/5/19 16:18,517
6/5/19 16:18,518
6/5/19 16:18,514
6/5/19 16:18,516
6/5/19 16:18,514
6/5/19 16:18,514
6/5/19 16:18,514
6/5/19 16:18,511
6/5/19 16:18,515
6/5/19 16:18,514
6/5/19 16:18,514
6/5/19 16:18,514
6/5/19 16:18,513
6/5/19 16:18,514
6/5/19 16:18,513
6/5/19 16:18,512
6/5/19 16:18,513
6/5/19 16:18,501
6/5/19 16:18,516
6/5/19 16:18,512
6/5/19 16:18,510
6/5/19 16:18,509
6/5/19 16:18,504
6/5/19 16:18,505
6/5/19 16:18,486
6/5/19 16:18,501
6/5/19 16:18,508
6/5/19 16:18,490
6/5/19 16:18,517
6/5/19 16:18,515
6/5/19 16:18,517
6/5/19 16:18,565
6/5/19 16:18,597
6/5/19 16:18,557
6/5/19 16:18,502
6/5/19 16:18,491
6/5/19 16:18,492
6/5/19 16:18,492
6/5/19 16:18,490
6/5/19 16:18,485
6/5/19 16:18,488
6/5/19 16:18,487
6/5/19 16:18,488
6/5/19 16:18,494
6/5/19 16:18,492
6/5/19 16:18,496
6/5/19 16:18,495
6/5/19 16:18,497
6/5/19 16:18,497
6/5/19 16:18,495
6/5/19 16:18,499
6/5/19 16:18,498
6/5/19 16:18,499
6/5/19 16:18,501
6/5/19 16:18,500
6/5/19 16:18,505
6/5/19 16:18,493
6/5/19 16:18,514
6/5/19 16:18,516
6/5/19 16:18,493
6/5/19 16:18,508
6/5/19 16:18,515
6/5/19 16:18,518
6/5/19 16:18,518
6/5/19 16:18,517
6/5/19 16:18,518
6/5/19 16:18,516
6/5/19 16:18,516
6/5/19 16:18,516
6/5/19 16:18,496
6/5/19 16:18,521
6/5/19 16:18,520
6/5/19 16:18,512
6/5/19 16:18,505
6/5/19 16:18,513
6/5/19 16:18,519
6/5/19 16:18,518
6/5/19 16:18,519
6/5/19 16:18,520
6/5/19 16:18,516
6/5/19 16:18,518
6/5/19 16:18,516
6/5/19 16:18,516
6/5/19 16:18,513
6/5/19 16:18,509
6/5/19 16:18,510
6/5/19 16:18,507
6/5/19 16:18,498
6/5/19 16:18,506
6/5/19 16:18,495
6/5/19 16:18,497
6/5/19 16:18,506
6/5/19 16:18,513
6/5/19 16:18,511
6/5/19 16:18,509
6/5/19 16:18,511
6/5/19 16:27,495
6/5/19 16:27,496
6/5/19 16:27,494
6/5/19 16:27,499
6/5/19 16:27,494
6/5/19 16:27,496
6/5/19 16:27,497
6/5/19 16:27,497
6/5/19 16:27,487
6/5/19 16:27,501
6/5/19 16:27,505
6/5/19 16:27,509
6/5/19 16:27,507
6/5/19 16:27,513
6/5/19 16:27,509
6/5/19 16:27,511
6/5/19 16:27,514
6/5/19 16:27,513
6/5/19 16:27,516
6/5/19 16:27,512
6/5/19 16:27,514
6/5/19 16:27,514
6/5/19 16:27,485
6/5/19 16:27,514
6/5/19 16:27,514
6/5/19 16:27,519
6/5/19 16:27,520
6/5/19 16:27,517
6/5/19 16:27,519
6/5/19 16:27,515
6/5/19 16:27,517
6/5/19 16:27,515
6/5/19 16:27,514
6/5/19 16:27,515
6/5/19 16:27,515
6/5/19 16:27,516
6/5/19 16:27,515
6/5/19 16:27,513
6/5/19 16:27,514
6/5/19 16:27,508
6/5/19 16:27,510
6/5/19 16:27,506
6/5/19 16:27,504
6/5/19 16:27,507
6/5/19 16:27,503
6/5/19 16:27,506
6/5/19 16:27,504
6/5/19 16:27,504
6/5/19 16:27,506
6/5/19 16:27,505
6/5/19 16:27,508
6/5/19 16:27,492
6/5/19 16:27,557
6/5/19 16:27,597
6/5/19 16:27,545
6/5/19 16:27,503
6/5/19 16:27,477
6/5/19 16:27,496
6/5/19 16:27,496
6/5/19 16:27,495
6/5/19 16:27,496
6/5/19 16:27,494
6/5/19 16:27,495
6/5/19 16:27,499
6/5/19 16:27,495
6/5/19 16:27,499
6/5/19 16:27,494
6/5/19 16:27,496
6/5/19 16:27,496
6/5/19 16:27,492
6/5/19 16:27,497
6/5/19 16:27,496
6/5/19 16:27,498
6/5/19 16:27,500
6/5/19 16:27,497
6/5/19 16:27,504
6/5/19 16:27,504
6/5/19 16:27,505
6/5/19 16:27,509
6/5/19 16:27,505
6/5/19 16:27,513
6/5/19 16:27,508
6/5/19 16:27,513
6/5/19 16:27,488
6/5/19 16:27,510
6/5/19 16:27,520
6/5/19 16:27,519
6/5/19 16:27,520
6/5/19 16:27,519
6/5/19 16:27,517
6/5/19 16:27,519
6/5/19 16:27,514
6/5/19 16:27,518
6/5/19 16:27,516
6/5/19 16:27,513
6/5/19 16:27,512
6/5/19 16:27,514
6/5/19 16:27,517
6/5/19 16:27,517
6/5/19 16:27,515
6/5/19 16:27,516
6/5/19 16:27,513
6/5/19 16:27,516
6/5/19 16:27,513
6/5/19 16:27,514
6/5/19 16:27,509
6/5/19 16:27,506
6/5/19 16:27,509
6/5/19 16:27,504
6/5/19 16:27,504
6/5/19 16:27,505
6/5/19 16:27,502
6/5/19 16:27,508
6/5/19 16:27,504
6/5/19 16:27,505
6/5/19 16:27,506
6/5/19 16:27,506
6/5/19 16:27,570
6/5/19 16:27,594
6/5/19 16:27,543
6/5/19 16:27,495
6/5/19 16:27,485
6/5/19 16:27,498
6/5/19 16:27,493
6/5/19 16:27,495
6/5/19 16:27,494
6/5/19 16:27,494
6/5/19 16:27,493
6/5/19 16:27,487
6/5/19 16:27,494
6/5/19 16:27,493
6/5/19 16:27,494
6/5/19 16:27,500
6/5/19 16:27,497
6/5/19 16:27,499
6/5/19 16:27,497
6/5/19 16:27,497
6/5/19 16:27,501
6/5/19 16:27,498
6/5/19 16:27,490
6/5/19 16:27,495
6/5/19 16:27,501
6/5/19 16:27,507
6/5/19 16:27,507
6/5/19 16:27,511
6/5/19 16:27,514
6/5/19 16:27,511
6/5/19 16:27,516
6/5/19 16:27,513
6/5/19 16:27,514
6/5/19 16:27,513
6/5/19 16:27,513
6/5/19 16:27,516
6/5/19 16:27,512
6/5/19 16:27,517
6/5/19 16:27,514
6/5/19 16:27,514
6/5/19 16:27,516
6/5/19 16:27,511
6/5/19 16:27,513
6/5/19 16:27,513
6/5/19 16:27,512
6/5/19 16:27,514
6/5/19 16:27,510
6/5/19 16:27,516
6/5/19 16:27,515
6/5/19 16:27,514
6/5/19 16:27,516
6/5/19 16:27,515
6/5/19 16:27,516
6/5/19 16:27,511
6/5/19 16:27,511
6/5/19 16:27,509
6/5/19 16:27,505
6/5/19 16:27,495
6/5/19 16:27,509
6/5/19 16:27,508
6/5/19 16:27,506
6/5/19 16:27,505
6/5/19 16:27,509
6/5/19 16:27,506
6/5/19 16:27,506
6/5/19 16:27,507
6/5/19 16:27,507
6/5/19 16:27,525
6/5/19 16:27,583
6/5/19 16:27,577
6/5/19 16:27,506
6/5/19 16:27,489
6/5/19 16:27,493
6/5/19 16:27,488
6/5/19 16:27,495
6/5/19 16:27,490
6/5/19 16:27,489
6/5/19 16:27,494
6/5/19 16:27,493
6/5/19 16:27,496
6/5/19 16:27,497
6/5/19 16:27,496
6/5/19 16:27,499
6/5/19 16:27,495
6/5/19 16:27,498
6/5/19 16:27,496
6/5/19 16:27,497
6/5/19 16:27,500
6/5/19 16:27,498
6/5/19 16:27,500
6/5/19 16:27,501
6/5/19 16:27,501
6/5/19 16:27,506
6/5/19 16:27,503
6/5/19 16:27,506
6/5/19 16:27,507
6/5/19 16:27,511
6/5/19 16:27,515
6/5/19 16:27,513
6/5/19 16:27,515
6/5/19 16:27,513
6/5/19 16:27,512
6/5/19 16:27,515
6/5/19 16:27,513
6/5/19 16:27,516
6/5/19 16:27,512
6/5/19 16:27,514
6/5/19 16:27,515
6/5/19 16:27,511
6/5/19 16:27,516
6/5/19 16:27,511
6/5/19 16:27,510
6/5/19 16:27,500
6/5/19 16:27,509
6/5/19 16:27,517
6/5/19 16:27,514
6/5/19 16:27,518
6/5/19 16:27,519
6/5/19 16:27,515
6/5/19 16:27,517
6/5/19 16:27,512
6/5/19 16:27,513
6/5/19 16:27,509
6/5/19 16:27,506
6/5/19 16:27,508
6/5/19 16:27,504
6/5/19 16:27,506
6/5/19 16:27,498
6/5/19 16:27,507
6/5/19 16:27,510
6/5/19 16:27,505
6/5/19 16:27,507
6/5/19 16:27,507
6/5/19 16:27,505
6/5/19 16:27,556
6/5/19 16:27,589
6/5/19 16:27,559
6/5/19 16:27,499
6/5/19 16:27,491
6/5/19 16:27,493
6/5/19 16:27,492
6/5/19 16:27,496
6/5/19 16:27,491
6/5/19 16:27,489
6/5/19 16:27,491
6/5/19 16:27,487
6/5/19 16:27,493
6/5/19 16:27,492
6/5/19 16:27,494
6/5/19 16:27,499
6/5/19 16:27,496
6/5/19 16:27,500
6/5/19 16:27,498
6/5/19 16:27,498
6/5/19 16:27,501
6/5/19 16:27,496
6/5/19 16:27,502
6/5/19 16:27,502
6/5/19 16:27,503
6/5/19 16:27,506
6/5/19 16:27,505
6/5/19 16:27,510
6/5/19 16:27,508
6/5/19 16:27,510
6/5/19 16:27,499
6/5/19 16:27,503
6/5/19 16:27,514
6/5/19 16:27,504
6/5/19 16:27,518
6/5/19 16:27,520
6/5/19 16:27,517
6/5/19 16:27,522
6/5/19 16:27,517
6/5/19 16:27,516
6/5/19 16:27,517
6/5/19 16:27,513
6/5/19 16:27,517
6/5/19 16:27,514
6/5/19 16:27,515
6/5/19 16:27,514
6/5/19 16:27,510
6/5/19 16:27,515
6/5/19 16:27,511
6/5/19 16:27,515
6/5/19 16:27,514
6/5/19 16:27,514
6/5/19 16:27,514
6/5/19 16:27,511
6/5/19 16:27,509
6/5/19 16:27,509
6/5/19 16:27,506
6/5/19 16:27,482
6/5/19 16:27,497
6/5/19 16:27,510
6/5/19 16:27,511
6/5/19 16:27,510
6/5/19 16:27,513
6/5/19 16:27,507
6/5/19 16:27,511
6/5/19 16:27,507
6/5/19 16:27,518
6/5/19 16:27,584
6/5/19 16:27,584
6/5/19 16:27,510
6/5/19 16:27,479
6/5/19 16:27,470
6/5/19 16:27,498
6/5/19 16:27,494
6/5/19 16:27,500
6/5/19 16:27,500
6/5/19 16:27,494
6/5/19 16:27,493
6/5/19 16:27,492
6/5/19 16:27,499
6/5/19 16:27,495
6/5/19 16:27,498
6/5/19 16:27,499
6/5/19 16:27,495
6/5/19 16:27,499
6/5/19 16:27,498
6/5/19 16:27,499
6/5/19 16:27,500
6/5/19 16:27,498
6/5/19 16:27,503
6/5/19 16:27,501
6/5/19 16:27,503
6/5/19 16:27,506
6/5/19 16:27,505
6/5/19 16:27,510
6/5/19 16:27,508
6/5/19 16:27,508
6/5/19 16:27,513
6/5/19 16:27,508
6/5/19 16:27,515
6/5/19 16:27,512
6/5/19 16:27,515
6/5/19 16:27,513
6/5/19 16:27,513
6/5/19 16:27,515
6/5/19 16:27,511
6/5/19 16:27,516
6/5/19 16:27,514
6/5/19 16:27,510
6/5/19 16:27,515
6/5/19 16:27,513
6/5/19 16:27,514
6/5/19 16:27,513
6/5/19 16:27,512
6/5/19 16:27,516
6/5/19 16:27,514
6/5/19 16:27,517
6/5/19 16:27,515
6/5/19 16:27,511
6/5/19 16:27,514
6/5/19 16:27,509
6/5/19 16:27,510
6/5/19 16:27,507
6/5/19 16:27,507
6/5/19 16:27,495
6/5/19 16:27,506
6/5/19 16:27,509
6/5/19 16:27,508
6/5/19 16:27,508
6/5/19 16:27,508
6/5/19 16:27,503
6/5/19 16:27,509
6/5/19 16:27,506
6/5/19 16:27,554
6/5/19 16:27,592
6/5/19 16:27,533
6/5/19 16:27,499
6/5/19 16:27,493
6/5/19 16:27,495
6/5/19 16:27,500
6/5/19 16:27,491
6/5/19 16:27,498
6/5/19 16:27,489
6/5/19 16:27,490
6/5/19 16:27,494
6/5/19 16:27,491
6/5/19 16:27,497
6/5/19 16:27,496
6/5/19 16:27,499
6/5/19 16:27,499
6/5/19 16:27,494
6/5/19 16:27,502
6/5/19 16:27,497
6/5/19 16:27,499
6/5/19 16:27,500
6/5/19 16:27,497
6/5/19 16:27,504
6/5/19 16:27,502
6/5/19 16:27,500
6/5/19 16:27,510
6/5/19 16:27,509
6/5/19 16:27,511
6/5/19 16:27,509
6/5/19 16:27,515
6/5/19 16:27,513
6/5/19 16:27,512
6/5/19 16:27,517
6/5/19 16:27,513
6/5/19 16:27,516
6/5/19 16:27,514
6/5/19 16:27,511
6/5/19 16:27,516
6/5/19 16:27,511
6/5/19 16:27,515
6/5/19 16:27,511
6/5/19 16:27,511
6/5/19 16:27,515
6/5/19 16:27,501
6/5/19 16:27,505
6/5/19 16:27,512
6/5/19 16:27,515
6/5/19 16:27,521
6/5/19 16:27,517
6/5/19 16:27,520
6/5/19 16:27,517
6/5/19 16:27,513
6/5/19 16:27,513
6/5/19 16:27,509
6/5/19 16:27,511
6/5/19 16:27,505
6/5/19 16:27,506
6/5/19 16:27,506
6/5/19 16:27,502
6/5/19 16:27,508
6/5/19 16:27,504
6/5/19 16:27,506
6/5/19 16:27,508
6/5/19 16:27,505
6/5/19 16:27,507
6/5/19 16:27,519
6/5/19 16:27,583
6/5/19 16:27,581
6/5/19 16:27,506
6/5/19 16:27,493
6/5/19 16:27,492
6/5/19 16:27,493
6/5/19 16:27,493
6/5/19 16:27,489
6/5/19 16:27,492
6/5/19 16:27,490
6/5/19 16:27,492
6/5/19 16:27,494
6/5/19 16:27,483
6/5/19 16:27,499
6/5/19 16:27,499
6/5/19 16:27,499
6/5/19 16:27,502
6/5/19 16:27,499
6/5/19 16:27,501
6/5/19 16:27,495
6/5/19 16:27,499
6/5/19 16:27,500
6/5/19 16:27,498
6/5/19 16:27,504
6/5/19 16:27,500
6/5/19 16:27,506
6/5/19 16:27,504
6/5/19 16:27,507
6/5/19 16:27,511
6/5/19 16:27,509
6/5/19 16:27,513
6/5/19 16:27,513
6/5/19 16:27,512
6/5/19 16:27,516
6/5/19 16:27,512
6/5/19 16:27,517
6/5/19 16:27,513
6/5/19 16:27,513
6/5/19 16:27,515
6/5/19 16:27,512
6/5/19 16:27,515
6/5/19 16:27,513
6/5/19 16:27,509
6/5/19 16:27,504
6/5/19 16:27,508
6/5/19 16:27,520
6/5/19 16:27,517
6/5/19 16:27,520
6/5/19 16:27,520
6/5/19 16:27,516
6/5/19 16:27,519
6/5/19 16:27,516
6/5/19 16:27,510
6/5/19 16:27,494
6/5/19 16:27,507
6/5/19 16:27,514
6/5/19 16:27,510
6/5/19 16:27,510
6/5/19 16:27,511
6/5/19 16:27,506
6/5/19 16:27,511
6/5/19 16:27,506
6/5/19 16:27,507
6/5/19 16:27,508
6/5/19 16:27,504
6/5/19 16:27,509
6/5/19 16:27,566
6/5/19 16:27,595
6/5/19 16:27,544
6/5/19 16:27,492
6/5/19 16:27,491
6/5/19 16:27,488
6/5/19 16:27,495
6/5/19 16:27,486
6/5/19 16:27,484
6/5/19 16:27,489
6/5/19 16:27,488
6/5/19 16:27,495
6/5/19 16:27,495
6/5/19 16:27,494
6/5/19 16:27,491
6/5/19 16:27,496
6/5/19 16:27,502
6/5/19 16:27,501
6/5/19 16:27,498
6/5/19 16:27,503
6/5/19 16:27,499
6/5/19 16:27,502
6/5/19 16:27,502
6/5/19 16:27,502
6/5/19 16:27,505
6/5/19 16:27,503
6/5/19 16:27,508
6/5/19 16:27,508
6/5/19 16:27,507
6/5/19 16:27,511
6/5/19 16:27,510
6/5/19 16:27,514
6/5/19 16:27,512
6/5/19 16:27,513
6/5/19 16:27,516
6/5/19 16:27,510
6/5/19 16:27,515
6/5/19 16:27,513
6/5/19 16:27,514
6/5/19 16:27,515
6/5/19 16:27,509
6/5/19 16:27,516
6/5/19 16:27,513
6/5/19 16:27,513
6/5/19 16:27,515
6/5/19 16:27,512
6/5/19 16:27,514
6/5/19 16:27,512
6/5/19 16:27,514
6/5/19 16:27,516
6/5/19 16:27,513
6/5/19 16:27,517
6/5/19 16:27,510
6/5/19 16:27,511
6/5/19 16:27,507
6/5/19 16:27,506
6/5/19 16:27,508
6/5/19 16:27,491
6/5/19 16:27,499
6/5/19 16:27,506
6/5/19 16:27,506
6/5/19 16:27,510
6/5/19 16:27,506
6/5/19 16:27,511
6/5/19 16:27,509
6/5/19 16:27,507
6/5/19 16:27,509
6/5/19 16:27,568
6/5/19 16:27,598
6/5/19 16:27,543
6/5/19 16:27,496
6/5/19 16:27,492
6/5/19 16:27,490
6/5/19 16:27,497
6/5/19 16:27,494
6/5/19 16:27,490
6/5/19 16:27,490
6/5/19 16:27,488
6/5/19 16:27,492
6/5/19 16:27,492
6/5/19 16:27,493
6/5/19 16:27,497
6/5/19 16:27,496
6/5/19 16:36,489
6/5/19 16:36,491
6/5/19 16:36,488
6/5/19 16:36,494
6/5/19 16:36,491
6/5/19 16:36,496
6/5/19 16:36,498
6/5/19 16:36,496
6/5/19 16:36,499
6/5/19 16:36,497
6/5/19 16:36,496
6/5/19 16:36,497
6/5/19 16:36,496
6/5/19 16:36,499
6/5/19 16:36,495
6/5/19 16:36,501
6/5/19 16:36,500
6/5/19 16:36,501
6/5/19 16:36,504
6/5/19 16:36,502
6/5/19 16:36,508
6/5/19 16:36,508
6/5/19 16:36,508
6/5/19 16:36,513
6/5/19 16:36,510
6/5/19 16:36,514
6/5/19 16:36,512
6/5/19 16:36,514
6/5/19 16:36,516
6/5/19 16:36,510
6/5/19 16:36,517
6/5/19 16:36,513
6/5/19 16:36,512
6/5/19 16:36,516
6/5/19 16:36,514
6/5/19 16:36,515
6/5/19 16:36,512
6/5/19 16:36,512
6/5/19 16:36,515
6/5/19 16:36,511
6/5/19 16:36,514
6/5/19 16:36,510
6/5/19 16:36,513
6/5/19 16:36,515
6/5/19 16:36,513
6/5/19 16:36,516
6/5/19 16:36,512
6/5/19 16:36,512
6/5/19 16:36,511
6/5/19 16:36,507
6/5/19 16:36,510
6/5/19 16:36,506
6/5/19 16:36,506
6/5/19 16:36,507
6/5/19 16:36,505
6/5/19 16:36,507
6/5/19 16:36,506
6/5/19 16:36,506
6/5/19 16:36,508
6/5/19 16:36,501
6/5/19 16:36,506
6/5/19 16:36,506
6/5/19 16:36,556
6/5/19 16:36,596
6/5/19 16:36,554
6/5/19 16:36,500
6/5/19 16:36,488
6/5/19 16:36,491
6/5/19 16:36,485
6/5/19 16:36,484
6/5/19 16:36,491
6/5/19 16:36,492
6/5/19 16:36,497
6/5/19 16:36,498
6/5/19 16:36,499
6/5/19 16:36,501
6/5/19 16:36,497
6/5/19 16:36,499
6/5/19 16:36,498
6/5/19 16:36,495
6/5/19 16:36,500
6/5/19 16:36,486
6/5/19 16:36,498
6/5/19 16:36,499
6/5/19 16:36,502
6/5/19 16:36,506
6/5/19 16:36,504
6/5/19 16:36,508
6/5/19 16:36,507
6/5/19 16:36,509
6/5/19 16:36,511
6/5/19 16:36,509
6/5/19 16:36,514
6/5/19 16:36,513
6/5/19 16:36,514
6/5/19 16:36,514
6/5/19 16:36,511
6/5/19 16:36,515
6/5/19 16:36,514
6/5/19 16:36,513
6/5/19 16:36,514
6/5/19 16:36,512
6/5/19 16:36,515
6/5/19 16:36,511
6/5/19 16:36,514
6/5/19 16:36,513
6/5/19 16:36,511
6/5/19 16:36,515
6/5/19 16:36,510
6/5/19 16:36,513
6/5/19 16:36,514
6/5/19 16:36,511
6/5/19 16:36,515
6/5/19 16:36,511
6/5/19 16:36,513
6/5/19 16:36,513
6/5/19 16:36,509
6/5/19 16:36,513
6/5/19 16:36,506
6/5/19 16:36,508
6/5/19 16:36,508
6/5/19 16:36,505
6/5/19 16:36,508
6/5/19 16:36,503
6/5/19 16:36,507
6/5/19 16:36,506
6/5/19 16:36,506
6/5/19 16:36,510
6/5/19 16:36,504
6/5/19 16:36,508
6/5/19 16:36,523
6/5/19 16:36,582
6/5/19 16:36,585
6/5/19 16:36,504
6/5/19 16:36,487
6/5/19 16:36,489
6/5/19 16:36,494
6/5/19 16:36,495
6/5/19 16:36,486
6/5/19 16:36,493
6/5/19 16:36,495
6/5/19 16:36,491
6/5/19 16:36,494
6/5/19 16:36,493
6/5/19 16:36,498
6/5/19 16:36,487
6/5/19 16:36,498
6/5/19 16:36,503
6/5/19 16:36,500
6/5/19 16:36,502
6/5/19 16:36,498
6/5/19 16:36,500
6/5/19 16:36,501
6/5/19 16:36,498
6/5/19 16:36,502
6/5/19 16:36,501
6/5/19 16:36,506
6/5/19 16:36,505
6/5/19 16:36,506
6/5/19 16:36,510
6/5/19 16:36,509
6/5/19 16:36,512
6/5/19 16:36,512
6/5/19 16:36,511
6/5/19 16:36,517
6/5/19 16:36,511
6/5/19 16:36,514
6/5/19 16:36,515
6/5/19 16:36,511
6/5/19 16:36,516
6/5/19 16:36,513
6/5/19 16:36,514
6/5/19 16:36,514
6/5/19 16:36,511
6/5/19 16:36,513
6/5/19 16:36,505
6/5/19 16:36,513
6/5/19 16:36,516
6/5/19 16:36,514
6/5/19 16:36,517
6/5/19 16:36,513
6/5/19 16:36,516
6/5/19 16:36,514
6/5/19 16:36,513
6/5/19 16:36,516
6/5/19 16:36,511
6/5/19 16:36,511
6/5/19 16:36,509
6/5/19 16:36,506
6/5/19 16:36,509
6/5/19 16:36,507
6/5/19 16:36,507
6/5/19 16:36,506
6/5/19 16:36,506
6/5/19 16:36,506
6/5/19 16:36,504
6/5/19 16:36,506
6/5/19 16:36,504
6/5/19 16:36,504
6/5/19 16:36,508
6/5/19 16:36,506
6/5/19 16:36,511
6/5/19 16:36,577
6/5/19 16:36,595
6/5/19 16:36,517
6/5/19 16:36,486
6/5/19 16:36,492
6/5/19 16:36,489
6/5/19 16:36,481
6/5/19 16:36,499
6/5/19 16:36,490
6/5/19 16:36,495
6/5/19 16:36,492
6/5/19 16:36,492
6/5/19 16:36,491
6/5/19 16:36,496
6/5/19 16:36,502
6/5/19 16:36,500
6/5/19 16:36,501
6/5/19 16:36,502
6/5/19 16:36,498
6/5/19 16:36,501
6/5/19 16:36,498
6/5/19 16:36,501
6/5/19 16:36,500
6/5/19 16:36,500
6/5/19 16:36,506
6/5/19 16:36,503
6/5/19 16:36,508
6/5/19 16:36,506
6/5/19 16:36,507
6/5/19 16:36,513
6/5/19 16:36,509
6/5/19 16:36,513
6/5/19 16:36,512
6/5/19 16:36,511
6/5/19 16:36,515
6/5/19 16:36,512
6/5/19 16:36,515
6/5/19 16:36,516
6/5/19 16:36,514
6/5/19 16:36,514
6/5/19 16:36,505
6/5/19 16:36,515
6/5/19 16:36,515
6/5/19 16:36,514
6/5/19 16:36,515
6/5/19 16:36,511
6/5/19 16:36,516
6/5/19 16:36,514
6/5/19 16:36,513
6/5/19 16:36,516
6/5/19 16:36,511
6/5/19 16:36,517
6/5/19 16:36,511
6/5/19 16:36,514
6/5/19 16:36,513
6/5/19 16:36,506
6/5/19 16:36,511
6/5/19 16:36,506
6/5/19 16:36,505
6/5/19 16:36,509
6/5/19 16:36,503
6/5/19 16:36,509
6/5/19 16:36,506
6/5/19 16:36,504
6/5/19 16:36,506
6/5/19 16:36,504
6/5/19 16:36,498
6/5/19 16:36,499
6/5/19 16:36,512
6/5/19 16:36,581
6/5/19 16:36,592
6/5/19 16:36,517
6/5/19 16:36,492
6/5/19 16:36,492
6/5/19 16:36,492
6/5/19 16:36,492
6/5/19 16:36,491
6/5/19 16:36,490
6/5/19 16:36,494
6/5/19 16:36,493
6/5/19 16:36,494
6/5/19 16:36,499
6/5/19 16:36,496
6/5/19 16:36,499
6/5/19 16:36,499
6/5/19 16:36,496
6/5/19 16:36,501
6/5/19 16:36,495
6/5/19 16:36,498
6/5/19 16:36,498
6/5/19 16:36,499
6/5/19 16:36,502
6/5/19 16:36,500
6/5/19 16:36,503
6/5/19 16:36,505
6/5/19 16:36,504
6/5/19 16:36,510
6/5/19 16:36,506
6/5/19 16:36,511
6/5/19 16:36,511
6/5/19 16:36,509
6/5/19 16:36,515
6/5/19 16:36,511
6/5/19 16:36,518
6/5/19 16:36,513
6/5/19 16:36,513
6/5/19 16:36,516
6/5/19 16:36,511
6/5/19 16:36,515
6/5/19 16:36,515
6/5/19 16:36,513
6/5/19 16:36,514
6/5/19 16:36,511
6/5/19 16:36,515
6/5/19 16:36,513
6/5/19 16:36,513
6/5/19 16:36,514
6/5/19 16:36,513
6/5/19 16:36,516
6/5/19 16:36,513
6/5/19 16:36,513
6/5/19 16:36,513
6/5/19 16:36,509
6/5/19 16:36,511
6/5/19 16:36,508
6/5/19 16:36,509
6/5/19 16:36,510
6/5/19 16:36,505
6/5/19 16:36,503
6/5/19 16:36,500
6/5/19 16:36,506
6/5/19 16:36,503
6/5/19 16:36,508
6/5/19 16:36,514
6/5/19 16:36,509
6/5/19 16:36,512
6/5/19 16:36,509
6/5/19 16:36,506
6/5/19 16:36,518
6/5/19 16:36,581
6/5/19 16:36,597
6/5/19 16:36,514
6/5/19 16:36,487
6/5/19 16:36,492
6/5/19 16:36,491
6/5/19 16:36,489
6/5/19 16:36,487
6/5/19 16:36,488
6/5/19 16:36,493
6/5/19 16:36,491
6/5/19 16:36,498
6/5/19 16:36,495
6/5/19 16:36,494
6/5/19 16:36,499
6/5/19 16:36,496
6/5/19 16:36,499
6/5/19 16:36,497
6/5/19 16:36,498
6/5/19 16:36,500
6/5/19 16:36,497
6/5/19 16:36,500
6/5/19 16:36,499
6/5/19 16:36,504
6/5/19 16:36,506
6/5/19 16:36,504
6/5/19 16:36,507
6/5/19 16:36,505
6/5/19 16:36,509
6/5/19 16:36,509
6/5/19 16:36,503
6/5/19 16:36,514
6/5/19 16:36,514
6/5/19 16:36,516
6/5/19 16:36,517
6/5/19 16:36,513
6/5/19 16:36,516
6/5/19 16:36,514
6/5/19 16:36,516
6/5/19 16:36,518
6/5/19 16:36,513
6/5/19 16:36,516
6/5/19 16:36,512
6/5/19 16:36,514
6/5/19 16:36,514
6/5/19 16:36,510
6/5/19 16:36,514
6/5/19 16:36,503
6/5/19 16:36,515
6/5/19 16:36,518
6/5/19 16:36,514
6/5/19 16:36,517
6/5/19 16:36,509
6/5/19 16:36,516
6/5/19 16:36,511
6/5/19 16:36,508
6/5/19 16:36,511
6/5/19 16:36,506
6/5/19 16:36,508
6/5/19 16:36,506
6/5/19 16:36,505
6/5/19 16:36,507
6/5/19 16:36,504
6/5/19 16:36,505
6/5/19 16:36,505
6/5/19 16:36,504
6/5/19 16:36,508
6/5/19 16:36,504
6/5/19 16:36,508
6/5/19 16:36,567
6/5/19 16:36,594
6/5/19 16:36,546
6/5/19 16:36,493
6/5/19 16:36,490
6/5/19 16:36,489
6/5/19 16:36,492
6/5/19 16:36,487
6/5/19 16:36,486
6/5/19 16:36,494
6/5/19 16:36,492
6/5/19 16:36,485
6/5/19 16:36,494
6/5/19 16:36,488
6/5/19 16:36,501
6/5/19 16:36,502
6/5/19 16:36,502
6/5/19 16:36,503
6/5/19 16:36,501
6/5/19 16:36,502
6/5/19 16:36,499
6/5/19 16:36,499
6/5/19 16:36,502
6/5/19 16:36,499
6/5/19 16:36,504
6/5/19 16:36,503
6/5/19 16:36,506
6/5/19 16:36,507
6/5/19 16:36,506
6/5/19 16:36,513
6/5/19 16:36,510
6/5/19 16:36,513
6/5/19 16:36,512
6/5/19 16:36,509
6/5/19 16:36,516
6/5/19 16:36,513
6/5/19 16:36,515
6/5/19 16:36,516
6/5/19 16:36,512
6/5/19 16:36,516
6/5/19 16:36,511
6/5/19 16:36,515
6/5/19 16:36,515
6/5/19 16:36,510
6/5/19 16:36,516
6/5/19 16:36,510
6/5/19 16:36,515
6/5/19 16:36,513
6/5/19 16:36,511
6/5/19 16:36,516
6/5/19 16:36,511
6/5/19 16:36,516
6/5/19 16:36,513
6/5/19 16:36,511
6/5/19 16:36,513
6/5/19 16:36,508
6/5/19 16:36,510
6/5/19 16:36,508
6/5/19 16:36,506
6/5/19 16:36,507
6/5/19 16:36,505
6/5/19 16:36,506
6/5/19 16:36,505
6/5/19 16:36,505
6/5/19 16:36,510
6/5/19 16:36,504
6/5/19 16:36,508
6/5/19 16:36,506
6/5/19 16:36,506
6/5/19 16:36,505
6/5/19 16:36,575
6/5/19 16:36,598
6/5/19 16:36,517
6/5/19 16:36,491
6/5/19 16:36,494
6/5/19 16:36,490
6/5/19 16:36,495
6/5/19 16:36,488
6/5/19 16:36,492
6/5/19 16:36,493
6/5/19 16:36,491
6/5/19 16:36,497
6/5/19 16:36,494
6/5/19 16:36,498
6/5/19 16:36,499
6/5/19 16:36,497
6/5/19 16:36,501
6/5/19 16:36,496
6/5/19 16:36,497
6/5/19 16:36,498
6/5/19 16:36,494
6/5/19 16:36,501
6/5/19 16:36,498
6/5/19 16:36,501
6/5/19 16:36,503
6/5/19 16:36,503
6/5/19 16:36,509
6/5/19 16:36,507
6/5/19 16:36,512
6/5/19 16:36,512
6/5/19 16:36,509
6/5/19 16:36,514
6/5/19 16:36,510
6/5/19 16:36,515
6/5/19 16:36,503
6/5/19 16:36,506
6/5/19 16:36,516
6/5/19 16:36,516
6/5/19 16:36,520
6/5/19 16:36,518
6/5/19 16:36,517
6/5/19 16:36,517
6/5/19 16:36,513
6/5/19 16:36,518
6/5/19 16:36,514
6/5/19 16:36,514
6/5/19 16:36,515
6/5/19 16:36,511
6/5/19 16:36,515
6/5/19 16:36,513
6/5/19 16:36,512
6/5/19 16:36,514
6/5/19 16:36,510
6/5/19 16:36,514
6/5/19 16:36,509
6/5/19 16:36,509
6/5/19 16:36,509
6/5/19 16:36,506
6/5/19 16:36,509
6/5/19 16:36,505
6/5/19 16:36,506
6/5/19 16:36,508
6/5/19 16:36,504
6/5/19 16:36,508
6/5/19 16:36,503
6/5/19 16:36,505
6/5/19 16:36,508
6/5/19 16:36,505
6/5/19 16:36,509
6/5/19 16:36,546
6/5/19 16:36,590
6/5/19 16:36,562
6/5/19 16:36,493
6/5/19 16:36,490
6/5/19 16:36,489
6/5/19 16:36,488
6/5/19 16:36,494
6/5/19 16:36,485
6/5/19 16:36,496
6/5/19 16:36,493
6/5/19 16:36,494
6/5/19 16:36,496
6/5/19 16:36,495
6/5/19 16:36,501
6/5/19 16:36,496
6/5/19 16:36,498
6/5/19 16:36,496
6/5/19 16:36,497
6/5/19 16:36,502
6/5/19 16:36,495
6/5/19 16:36,501
6/5/19 16:36,500
6/5/19 16:36,498
6/5/19 16:36,504
6/5/19 16:36,501
6/5/19 16:36,505
6/5/19 16:36,505
6/5/19 16:36,508
6/5/19 16:36,512
6/5/19 16:36,509
6/5/19 16:36,513
6/5/19 16:36,511
6/5/19 16:36,513
6/5/19 16:36,514
6/5/19 16:36,513
6/5/19 16:36,516
6/5/19 16:36,513
6/5/19 16:36,511
6/5/19 16:36,516
6/5/19 16:36,511
6/5/19 16:36,516
6/5/19 16:36,513
6/5/19 16:36,512
6/5/19 16:36,513
6/5/19 16:36,512
6/5/19 16:36,515
6/5/19 16:36,514
6/5/19 16:36,514
6/5/19 16:36,515
6/5/19 16:36,512
6/5/19 16:45,510
6/5/19 16:45,509
6/5/19 16:45,509
6/5/19 16:45,509
6/5/19 16:45,514
6/5/19 16:45,509
6/5/19 16:45,512
6/5/19 16:45,514
6/5/19 16:45,509
6/5/19 16:45,514
6/5/19 16:45,511
6/5/19 16:45,515
6/5/19 16:45,514
6/5/19 16:45,513
6/5/19 16:45,508
6/5/19 16:45,508
6/5/19 16:45,514
6/5/19 16:45,513
6/5/19 16:45,513
6/5/19 16:45,517
6/5/19 16:45,514
6/5/19 16:45,515
6/5/19 16:45,513
6/5/19 16:45,514
6/5/19 16:45,515
6/5/19 16:45,510
6/5/19 16:45,514
6/5/19 16:45,510
6/5/19 16:45,510
6/5/19 16:45,509
6/5/19 16:45,506
6/5/19 16:45,510
6/5/19 16:45,507
6/5/19 16:45,506
6/5/19 16:45,507
6/5/19 16:45,504
6/5/19 16:45,508
6/5/19 16:45,505
6/5/19 16:45,506
6/5/19 16:45,507
6/5/19 16:45,503
6/5/19 16:45,502
6/5/19 16:45,546
6/5/19 16:45,592
6/5/19 16:45,564
6/5/19 16:45,498
6/5/19 16:45,493
6/5/19 16:45,489
6/5/19 16:45,494
6/5/19 16:45,490
6/5/19 16:45,486
6/5/19 16:45,495
6/5/19 16:45,490
6/5/19 16:45,497
6/5/19 16:45,498
6/5/19 16:45,497
6/5/19 16:45,499
6/5/19 16:45,498
6/5/19 16:45,499
6/5/19 16:45,498
6/5/19 16:45,497
6/5/19 16:45,500
6/5/19 16:45,496
6/5/19 16:45,500
6/5/19 16:45,500
6/5/19 16:45,500
6/5/19 16:45,506
6/5/19 16:45,501
6/5/19 16:45,508
6/5/19 16:45,506
6/5/19 16:45,507
6/5/19 16:45,510
6/5/19 16:45,509
6/5/19 16:45,514
6/5/19 16:45,511
6/5/19 16:45,511
6/5/19 16:45,514
6/5/19 16:45,511
6/5/19 16:45,516
6/5/19 16:45,513
6/5/19 16:45,514
6/5/19 16:45,516
6/5/19 16:45,511
6/5/19 16:45,516
6/5/19 16:45,512
6/5/19 16:45,513
6/5/19 16:45,514
6/5/19 16:45,509
6/5/19 16:45,514
6/5/19 16:45,513
6/5/19 16:45,514
6/5/19 16:45,514
6/5/19 16:45,511
6/5/19 16:45,516
6/5/19 16:45,511
6/5/19 16:45,504
6/5/19 16:45,510
6/5/19 16:45,509
6/5/19 16:45,515
6/5/19 16:45,509
6/5/19 16:45,510
6/5/19 16:45,509
6/5/19 16:45,509
6/5/19 16:45,511
6/5/19 16:45,504
6/5/19 16:45,508
6/5/19 16:45,507
6/5/19 16:45,504
6/5/19 16:45,508
6/5/19 16:45,502
6/5/19 16:45,505
6/5/19 16:45,516
6/5/19 16:45,578
6/5/19 16:45,596
6/5/19 16:45,517
6/5/19 16:45,494
6/5/19 16:45,491
6/5/19 16:45,490
6/5/19 16:45,495
6/5/19 16:45,485
6/5/19 16:45,489
6/5/19 16:45,492
6/5/19 16:45,492
6/5/19 16:45,496
6/5/19 16:45,496
6/5/19 16:45,500
6/5/19 16:45,499
6/5/19 16:45,498
6/5/19 16:45,494
6/5/19 16:45,495
6/5/19 16:45,502
6/5/19 16:45,500
6/5/19 16:45,489
6/5/19 16:45,500
6/5/19 16:45,500
6/5/19 16:45,506
6/5/19 16:45,504
6/5/19 16:45,507
6/5/19 16:45,509
6/5/19 16:45,507
6/5/19 16:45,510
6/5/19 16:45,508
6/5/19 16:45,513
6/5/19 16:45,513
6/5/19 16:45,510
6/5/19 16:45,516
6/5/19 16:45,514
6/5/19 16:45,514
6/5/19 16:45,516
6/5/19 16:45,511
6/5/19 16:45,517
6/5/19 16:45,512
6/5/19 16:45,514
6/5/19 16:45,514
6/5/19 16:45,510
6/5/19 16:45,515
6/5/19 16:45,511
6/5/19 16:45,511
6/5/19 16:45,514
6/5/19 16:45,510
6/5/19 16:45,516
6/5/19 16:45,511
6/5/19 16:45,515
6/5/19 16:45,515
6/5/19 16:45,508
6/5/19 16:45,512
6/5/19 16:45,509
6/5/19 16:45,511
6/5/19 16:45,508
6/5/19 16:45,507
6/5/19 16:45,511
6/5/19 16:45,506
6/5/19 16:45,509
6/5/19 16:45,508
6/5/19 16:45,506
6/5/19 16:45,508
6/5/19 16:45,504
6/5/19 16:45,507
6/5/19 16:45,507
6/5/19 16:45,506
6/5/19 16:45,510
6/5/19 16:45,573
6/5/19 16:45,597
6/5/19 16:45,510
6/5/19 16:45,489
6/5/19 16:45,490
6/5/19 16:45,484
6/5/19 16:45,496
6/5/19 16:45,492
6/5/19 16:45,493
6/5/19 16:45,498
6/5/19 16:45,494
6/5/19 16:45,499
6/5/19 16:45,499
6/5/19 16:45,498
6/5/19 16:45,500
6/5/19 16:45,498
6/5/19 16:45,499
6/5/19 16:45,494
6/5/19 16:45,497
6/5/19 16:45,498
6/5/19 16:45,495
6/5/19 16:45,501
6/5/19 16:45,498
6/5/19 16:45,502
6/5/19 16:45,503
6/5/19 16:45,504
6/5/19 16:45,508
6/5/19 16:45,506
6/5/19 16:45,509
6/5/19 16:45,510
6/5/19 16:45,509
6/5/19 16:45,514
6/5/19 16:45,509
6/5/19 16:45,511
6/5/19 16:45,514
6/5/19 16:45,511
6/5/19 16:45,516
6/5/19 16:45,512
6/5/19 16:45,516
6/5/19 16:45,515
6/5/19 16:45,511
6/5/19 16:45,515
6/5/19 16:45,513
6/5/19 16:45,513
6/5/19 16:45,514
6/5/19 16:45,513
6/5/19 16:45,516
6/5/19 16:45,510
6/5/19 16:45,514
6/5/19 16:45,513
6/5/19 16:45,512
6/5/19 16:45,514
6/5/19 16:45,510
6/5/19 16:45,514
6/5/19 16:45,513
6/5/19 16:45,508
6/5/19 16:45,510
6/5/19 16:45,505
6/5/19 16:45,508
6/5/19 16:45,507
6/5/19 16:45,506
6/5/19 16:45,510
6/5/19 16:45,504
6/5/19 16:45,509
6/5/19 16:45,505
6/5/19 16:45,506
6/5/19 16:45,508
6/5/19 16:45,506
6/5/19 16:45,509
6/5/19 16:45,568
6/5/19 16:45,592
6/5/19 16:45,543
6/5/19 16:45,493
6/5/19 16:45,491
6/5/19 16:45,488
6/5/19 16:45,494
6/5/19 16:45,490
6/5/19 16:45,486
6/5/19 16:45,493
6/5/19 16:45,493
6/5/19 16:45,493
6/5/19 16:45,497
6/5/19 16:45,494
6/5/19 16:45,499
6/5/19 16:45,496
6/5/19 16:45,498
6/5/19 16:45,498
6/5/19 16:45,490
6/5/19 16:45,507
6/5/19 16:45,478
6/5/19 16:45,503
6/5/19 16:45,510
6/5/19 16:45,508
6/5/19 16:45,513
6/5/19 16:45,506
6/5/19 16:45,510
6/5/19 16:45,498
6/5/19 16:45,507
6/5/19 16:45,515
6/5/19 16:45,505
6/5/19 16:45,518
6/5/19 16:45,522
6/5/19 16:45,518
6/5/19 16:45,520
6/5/19 16:45,516
6/5/19 16:45,518
6/5/19 16:45,516
6/5/19 16:45,513
6/5/19 16:45,516
6/5/19 16:45,513
6/5/19 16:45,514
6/5/19 16:45,514
6/5/19 16:45,510
6/5/19 16:45,511
6/5/19 16:45,507
6/5/19 16:45,511
6/5/19 16:45,511
6/5/19 16:45,508
6/5/19 16:45,500
6/5/19 16:45,494
6/5/19 16:45,514
6/5/19 16:45,518
6/5/19 16:45,517
6/5/19 16:45,517
6/5/19 16:45,512
6/5/19 16:45,514
6/5/19 16:45,509
6/5/19 16:45,507
6/5/19 16:45,513
6/5/19 16:45,503
6/5/19 16:45,508
6/5/19 16:45,504
6/5/19 16:45,505
6/5/19 16:45,507
6/5/19 16:45,505
6/5/19 16:45,508
6/5/19 16:45,507
6/5/19 16:45,506
6/5/19 16:45,508
6/5/19 16:45,511
6/5/19 16:45,590
6/5/19 16:45,591
6/5/19 16:45,511
6/5/19 16:45,487
6/5/19 16:45,480
6/5/19 16:45,487
6/5/19 16:45,492
6/5/19 16:45,493
6/5/19 16:45,494
6/5/19 16:45,486
6/5/19 16:45,491
6/5/19 16:45,494
6/5/19 16:45,499
6/5/19 16:45,499
6/5/19 16:45,496
6/5/19 16:45,502
6/5/19 16:45,497
6/5/19 16:45,500
6/5/19 16:45,500
6/5/19 16:45,497
6/5/19 16:45,502
6/5/19 16:45,499
6/5/19 16:45,502
6/5/19 16:45,502
6/5/19 16:45,503
6/5/19 16:45,509
6/5/19 16:45,505
6/5/19 16:45,509
6/5/19 16:45,510
6/5/19 16:45,508
6/5/19 16:45,514
6/5/19 16:45,510
6/5/19 16:45,513
6/5/19 16:45,514
6/5/19 16:45,510
6/5/19 16:45,516
6/5/19 16:45,512
6/5/19 16:45,514
6/5/19 16:45,514
6/5/19 16:45,514
6/5/19 16:45,516
6/5/19 16:45,509
6/5/19 16:45,504
6/5/19 16:45,511
6/5/19 16:45,514
6/5/19 16:45,516
6/5/19 16:45,512
6/5/19 16:45,517
6/5/19 16:45,516
6/5/19 16:45,508
6/5/19 16:45,517
6/5/19 16:45,514
6/5/19 16:45,515
6/5/19 16:45,512
6/5/19 16:45,512
6/5/19 16:45,514
6/5/19 16:45,507
6/5/19 16:45,510
6/5/19 16:45,507
6/5/19 16:45,508
6/5/19 16:45,507
6/5/19 16:45,504
6/5/19 16:45,508
6/5/19 16:45,505
6/5/19 16:45,505
6/5/19 16:45,508
6/5/19 16:45,505
6/5/19 16:45,508
6/5/19 16:45,503
6/5/19 16:45,505
6/5/19 16:45,523
6/5/19 16:45,585
6/5/19 16:45,578
6/5/19 16:45,482
6/5/19 16:45,489
6/5/19 16:45,490
6/5/19 16:45,461
6/5/19 16:45,495
6/5/19 16:45,491
6/5/19 16:45,482
6/5/19 16:45,502
6/5/19 16:45,507
6/5/19 16:45,513
6/5/19 16:45,468
6/5/19 16:45,506
6/5/19 16:45,515
6/5/19 16:45,512
6/5/19 16:45,513
6/5/19 16:45,506
6/5/19 16:45,471
6/5/19 16:45,506
6/5/19 16:45,506
6/5/19 16:45,511
6/5/19 16:45,506
6/5/19 16:45,509
6/5/19 16:45,507
6/5/19 16:45,506
6/5/19 16:45,508
6/5/19 16:45,503
6/5/19 16:45,508
6/5/19 16:45,508
6/5/19 16:45,508
6/5/19 16:45,511
6/5/19 16:45,508
6/5/19 16:45,491
6/5/19 16:45,493
6/5/19 16:45,508
6/5/19 16:45,520
6/5/19 16:45,517
6/5/19 16:45,520
6/5/19 16:45,516
6/5/19 16:45,514
6/5/19 16:45,517
6/5/19 16:45,492
6/5/19 16:45,515
6/5/19 16:45,498
6/5/19 16:45,514
6/5/19 16:45,520
6/5/19 16:45,516
6/5/19 16:45,519
6/5/19 16:45,517
6/5/19 16:45,517
6/5/19 16:45,515
6/5/19 16:45,511
6/5/19 16:45,514
6/5/19 16:45,506
6/5/19 16:45,508
6/5/19 16:45,508
6/5/19 16:45,505
6/5/19 16:45,509
6/5/19 16:45,502
6/5/19 16:45,506
6/5/19 16:45,505
6/5/19 16:45,507
6/5/19 16:45,491
6/5/19 16:45,498
6/5/19 16:45,510
6/5/19 16:45,476
6/5/19 16:45,513
6/5/19 16:45,510
6/5/19 16:45,503
6/5/19 16:45,530
6/5/19 16:45,595
6/5/19 16:45,585
6/5/19 16:45,475
6/5/19 16:45,409
6/5/19 16:45,417
6/5/19 16:45,427
6/5/19 16:45,579
6/5/19 16:45,553
6/5/19 16:45,519
6/5/19 16:45,507
6/5/19 16:45,472
6/5/19 16:45,449
6/5/19 16:45,508
6/5/19 16:45,552
6/5/19 16:45,554
6/5/19 16:45,508
6/5/19 16:45,545
6/5/19 16:45,541
6/5/19 16:45,484
6/5/19 16:45,516
6/5/19 16:45,526
6/5/19 16:45,483
6/5/19 16:45,520
6/5/19 16:45,476
6/5/19 16:45,529
6/5/19 16:45,487
6/5/19 16:45,510
6/5/19 16:45,450
6/5/19 16:45,516
6/5/19 16:45,527
6/5/19 16:45,534
6/5/19 16:45,537
6/5/19 16:45,536
6/5/19 16:45,526
6/5/19 16:45,521
6/5/19 16:45,514
6/5/19 16:45,512
6/5/19 16:45,513
6/5/19 16:45,509
6/5/19 16:45,509
6/5/19 16:45,479
6/5/19 16:45,475
6/5/19 16:45,507
6/5/19 16:45,516
6/5/19 16:45,523
6/5/19 16:45,510
6/5/19 16:45,507
6/5/19 16:45,508
6/5/19 16:45,501
6/5/19 16:45,501
6/5/19 16:45,497
6/5/19 16:45,502
6/5/19 16:45,497
6/5/19 16:45,497
6/5/19 16:45,469
6/5/19 16:45,510
6/5/19 16:45,518
6/5/19 16:45,522
6/5/19 16:45,517
6/5/19 16:45,466
6/5/19 16:45,503
6/5/19 16:45,527
6/5/19 16:45,520
6/5/19 16:45,516
6/5/19 16:45,501
6/5/19 16:45,503
6/5/19 16:45,513
6/5/19 16:45,521
6/5/19 16:45,516
6/5/19 16:45,513
6/5/19 16:45,544
6/5/19 16:45,599
6/5/19 16:45,533
6/5/19 16:45,485
6/5/19 16:45,491
6/5/19 16:45,509
6/5/19 16:45,506
6/5/19 16:45,511
6/5/19 16:45,494
6/5/19 16:45,476
6/5/19 16:45,475
6/5/19 16:45,491
6/5/19 16:45,506
6/5/19 16:45,505
6/5/19 16:45,504
6/5/19 16:45,500
6/5/19 16:45,501
6/5/19 16:45,495
6/5/19 16:45,491
6/5/19 16:45,494
6/5/19 16:45,491
6/5/19 16:45,466
6/5/19 16:45,499
6/5/19 16:45,506
6/5/19 16:45,505
6/5/19 16:45,454
6/5/19 16:45,507
6/5/19 16:45,523
6/5/19 16:45,524
6/5/19 16:45,522
6/5/19 16:45,517
6/5/19 16:45,519
6/5/19 16:45,512
6/5/19 16:45,504
6/5/19 16:45,525
6/5/19 16:45,521
6/5/19 16:45,498
6/5/19 16:45,504
6/5/19 16:45,518
6/5/19 16:45,522
6/5/19 16:45,518
6/5/19 16:45,518
6/5/19 16:45,514
6/5/19 16:45,514
6/5/19 16:45,513
6/5/19 16:45,510
6/5/19 16:45,511
6/5/19 16:45,508
6/5/19 16:45,513
6/5/19 16:45,510
6/5/19 16:45,481
6/5/19 16:45,509
6/5/19 16:45,522
6/5/19 16:45,528
6/5/19 16:45,523
6/5/19 16:45,519
6/5/19 16:45,520
6/5/19 16:45,511
6/5/19 16:45,513
6/5/19 16:45,509
6/5/19 16:45,502
6/5/19 16:45,491
6/5/19 16:45,503
6/5/19 16:45,517
6/5/19 16:45,489
6/5/19 16:45,507
6/5/19 16:45,518
6/5/19 16:54,510
6/5/19 16:54,509
6/5/19 16:54,514
6/5/19 16:54,511
6/5/19 16:54,511
6/5/19 16:54,513
6/5/19 16:54,510
6/5/19 16:54,513
6/5/19 16:54,511
6/5/19 16:54,511
6/5/19 16:54,514
6/5/19 16:54,510
6/5/19 16:54,513
6/5/19 16:54,511
6/5/19 16:54,511
6/5/19 16:54,512
6/5/19 16:54,511
6/5/19 16:54,515
6/5/19 16:54,511
6/5/19 16:54,511
6/5/19 16:54,513
6/5/19 16:54,507
6/5/19 16:54,499
6/5/19 16:54,504
6/5/19 16:54,511
6/5/19 16:54,511
6/5/19 16:54,509
6/5/19 16:54,511
6/5/19 16:54,508
6/5/19 16:54,509
6/5/19 16:54,507
6/5/19 16:54,507
6/5/19 16:54,510
6/5/19 16:54,505
6/5/19 16:54,509
6/5/19 16:54,507
6/5/19 16:54,506
6/5/19 16:54,505
6/5/19 16:54,579
6/5/19 16:54,596
6/5/19 16:54,516
6/5/19 16:54,489
6/5/19 16:54,490
6/5/19 16:54,487
6/5/19 16:54,491
6/5/19 16:54,488
6/5/19 16:54,489
6/5/19 16:54,494
6/5/19 16:54,495
6/5/19 16:54,499
6/5/19 16:54,498
6/5/19 16:54,500
6/5/19 16:54,501
6/5/19 16:54,497
6/5/19 16:54,499
6/5/19 16:54,497
6/5/19 16:54,499
6/5/19 16:54,499
6/5/19 16:54,499
6/5/19 16:54,503
6/5/19 16:54,501
6/5/19 16:54,502
6/5/19 16:54,504
6/5/19 16:54,490
6/5/19 16:54,492
6/5/19 16:54,511
6/5/19 16:54,515
6/5/19 16:54,518
6/5/19 16:54,513
6/5/19 16:54,517
6/5/19 16:54,515
6/5/19 16:54,516
6/5/19 16:54,515
6/5/19 16:54,511
6/5/19 16:54,514
6/5/19 16:54,496
6/5/19 16:54,511
6/5/19 16:54,516
6/5/19 16:54,513
6/5/19 16:54,518
6/5/19 16:54,515
6/5/19 16:54,518
6/5/19 16:54,514
6/5/19 16:54,511
6/5/19 16:54,515
6/5/19 16:54,511
6/5/19 16:54,513
6/5/19 16:54,511
6/5/19 16:54,511
6/5/19 16:54,502
6/5/19 16:54,513
6/5/19 16:54,516
6/5/19 16:54,513
6/5/19 16:54,510
6/5/19 16:54,513
6/5/19 16:54,507
6/5/19 16:54,510
6/5/19 16:54,504
6/5/19 16:54,506
6/5/19 16:54,508
6/5/19 16:54,504
6/5/19 16:54,492
6/5/19 16:54,504
6/5/19 16:54,508
6/5/19 16:54,511
6/5/19 16:54,506
6/5/19 16:54,511
6/5/19 16:54,524
6/5/19 16:54,582
6/5/19 16:54,582
6/5/19 16:54,504
6/5/19 16:54,491
6/5/19 16:54,491
6/5/19 16:54,491
6/5/19 16:54,483
6/5/19 16:54,484
6/5/19 16:54,494
6/5/19 16:54,497
6/5/19 16:54,497
6/5/19 16:54,482
6/5/19 16:54,495
6/5/19 16:54,506
6/5/19 16:54,503
6/5/19 16:54,507
6/5/19 16:54,503
6/5/19 16:54,499
6/5/19 16:54,501
6/5/19 16:54,498
6/5/19 16:54,500
6/5/19 16:54,500
6/5/19 16:54,486
6/5/19 16:54,503
6/5/19 16:54,504
6/5/19 16:54,508
6/5/19 16:54,507
6/5/19 16:54,507
6/5/19 16:54,510
6/5/19 16:54,507
6/5/19 16:54,511
6/5/19 16:54,509
6/5/19 16:54,510
6/5/19 16:54,514
6/5/19 16:54,511
6/5/19 16:54,515
6/5/19 16:54,514
6/5/19 16:54,511
6/5/19 16:54,515
6/5/19 16:54,509
6/5/19 16:54,515
6/5/19 16:54,512
6/5/19 16:54,512
6/5/19 16:54,514
6/5/19 16:54,509
6/5/19 16:54,514
6/5/19 16:54,512
6/5/19 16:54,511
6/5/19 16:54,514
6/5/19 16:54,512
6/5/19 16:54,514
6/5/19 16:54,510
6/5/19 16:54,513
6/5/19 16:54,513
6/5/19 16:54,509
6/5/19 16:54,512
6/5/19 16:54,508
6/5/19 16:54,502
6/5/19 16:54,500
6/5/19 16:54,506
6/5/19 16:54,511
6/5/19 16:54,510
6/5/19 16:54,510
6/5/19 16:54,511
6/5/19 16:54,507
6/5/19 16:54,510
6/5/19 16:54,505
6/5/19 16:54,508
6/5/19 16:54,502
6/5/19 16:54,509
6/5/19 16:54,513
6/5/19 16:54,510
6/5/19 16:54,584
6/5/19 16:54,595
6/5/19 16:54,517
6/5/19 16:54,492
6/5/19 16:54,488
6/5/19 16:54,491
6/5/19 16:54,495
6/5/19 16:54,488
6/5/19 16:54,488
6/5/19 16:54,475
6/5/19 16:54,485
6/5/19 16:54,497
6/5/19 16:54,501
6/5/19 16:54,505
6/5/19 16:54,500
6/5/19 16:54,492
6/5/19 16:54,502
6/5/19 16:54,502
6/5/19 16:54,505
6/5/19 16:54,499
6/5/19 16:54,503
6/5/19 16:54,502
6/5/19 16:54,498
6/5/19 16:54,502
6/5/19 16:54,500
6/5/19 16:54,506
6/5/19 16:54,503
6/5/19 16:54,507
6/5/19 16:54,493
6/5/19 16:54,501
6/5/19 16:54,514
6/5/19 16:54,514
6/5/19 16:54,516
6/5/19 16:54,516
6/5/19 16:54,512
6/5/19 16:54,518
6/5/19 16:54,513
6/5/19 16:54,513
6/5/19 16:54,515
6/5/19 16:54,514
6/5/19 16:54,517
6/5/19 16:54,513
6/5/19 16:54,502
6/5/19 16:54,515
6/5/19 16:54,514
6/5/19 16:54,500
6/5/19 16:54,509
6/5/19 16:54,516
6/5/19 16:54,519
6/5/19 16:54,516
6/5/19 16:54,518
6/5/19 16:54,514
6/5/19 16:54,514
6/5/19 16:54,514
6/5/19 16:54,508
6/5/19 16:54,512
6/5/19 16:54,507
6/5/19 16:54,508
6/5/19 16:54,509
6/5/19 16:54,504
6/5/19 16:54,507
6/5/19 16:54,505
6/5/19 16:54,508
6/5/19 16:54,508
6/5/19 16:54,504
6/5/19 16:54,506
6/5/19 16:54,503
6/5/19 16:54,508
6/5/19 16:54,508
6/5/19 16:54,506
6/5/19 16:54,509
6/5/19 16:54,509
6/5/19 16:54,580
6/5/19 16:54,593
6/5/19 16:54,516
6/5/19 16:54,474
6/5/19 16:54,483
6/5/19 16:54,489
6/5/19 16:54,497
6/5/19 16:54,497
6/5/19 16:54,502
6/5/19 16:54,495
6/5/19 16:54,498
6/5/19 16:54,497
6/5/19 16:54,498
6/5/19 16:54,501
6/5/19 16:54,497
6/5/19 16:54,502
6/5/19 16:54,499
6/5/19 16:54,499
6/5/19 16:54,500
6/5/19 16:54,497
6/5/19 16:54,500
6/5/19 16:54,498
6/5/19 16:54,500
6/5/19 16:54,501
6/5/19 16:54,501
6/5/19 16:54,506
6/5/19 16:54,475
6/5/19 16:54,505
6/5/19 16:54,515
6/5/19 16:54,514
6/5/19 16:54,516
6/5/19 16:54,515
6/5/19 16:54,515
6/5/19 16:54,516
6/5/19 16:54,513
6/5/19 16:54,516
6/5/19 16:54,514
6/5/19 16:54,513
6/5/19 16:54,514
6/5/19 16:54,511
6/5/19 16:54,516
6/5/19 16:54,512
6/5/19 16:54,513
6/5/19 16:54,514
6/5/19 16:54,511
6/5/19 16:54,514
6/5/19 16:54,508
6/5/19 16:54,500
6/5/19 16:54,513
6/5/19 16:54,512
6/5/19 16:54,518
6/5/19 16:54,499
6/5/19 16:54,509
6/5/19 16:54,514
6/5/19 16:54,513
6/5/19 16:54,516
6/5/19 16:54,511
6/5/19 16:54,512
6/5/19 16:54,511
6/5/19 16:54,506
6/5/19 16:54,509
6/5/19 16:54,503
6/5/19 16:54,508
6/5/19 16:54,507
6/5/19 16:54,505
6/5/19 16:54,509
6/5/19 16:54,504
6/5/19 16:54,509
6/5/19 16:54,507
6/5/19 16:54,504
6/5/19 16:54,507
6/5/19 16:54,519
6/5/19 16:54,584
6/5/19 16:54,570
6/5/19 16:54,503
6/5/19 16:54,496
6/5/19 16:54,494
6/5/19 16:54,498
6/5/19 16:54,492
6/5/19 16:54,487
6/5/19 16:54,491
6/5/19 16:54,490
6/5/19 16:54,497
6/5/19 16:54,496
6/5/19 16:54,497
6/5/19 16:54,502
6/5/19 16:54,498
6/5/19 16:54,503
6/5/19 16:54,497
6/5/19 16:54,497
6/5/19 16:54,499
6/5/19 16:54,496
6/5/19 16:54,500
6/5/19 16:54,498
6/5/19 16:54,501
6/5/19 16:54,500
6/5/19 16:54,500
6/5/19 16:54,506
6/5/19 16:54,503
6/5/19 16:54,496
6/5/19 16:54,510
6/5/19 16:54,512
6/5/19 16:54,515
6/5/19 16:54,512
6/5/19 16:54,516
6/5/19 16:54,514
6/5/19 16:54,513
6/5/19 16:54,501
6/5/19 16:54,510
6/5/19 16:54,518
6/5/19 16:54,517
6/5/19 16:54,515
6/5/19 16:54,518
6/5/19 16:54,513
6/5/19 16:54,516
6/5/19 16:54,515
6/5/19 16:54,513
6/5/19 16:54,515
6/5/19 16:54,510
6/5/19 16:54,514
6/5/19 16:54,511
6/5/19 16:54,513
6/5/19 16:54,515
6/5/19 16:54,511
6/5/19 16:54,513
6/5/19 16:54,510
6/5/19 16:54,508
6/5/19 16:54,511
6/5/19 16:54,507
6/5/19 16:54,510
6/5/19 16:54,506
6/5/19 16:54,489
6/5/19 16:54,510
6/5/19 16:54,510
6/5/19 16:54,514
6/5/19 16:54,511
6/5/19 16:54,513
6/5/19 16:54,512
6/5/19 16:54,507
6/5/19 16:54,512
6/5/19 16:54,505
6/5/19 16:54,506
6/5/19 16:54,507
6/5/19 16:54,515
6/5/19 16:54,587
6/5/19 16:54,581
6/5/19 16:54,507
6/5/19 16:54,487
6/5/19 16:54,488
6/5/19 16:54,491
6/5/19 16:54,486
6/5/19 16:54,489
6/5/19 16:54,490
6/5/19 16:54,489
6/5/19 16:54,497
6/5/19 16:54,495
6/5/19 16:54,499
6/5/19 16:54,500
6/5/19 16:54,497
6/5/19 16:54,502
6/5/19 16:54,498
6/5/19 16:54,501
6/5/19 16:54,490
6/5/19 16:54,500
6/5/19 16:54,499
6/5/19 16:54,491
6/5/19 16:54,505
6/5/19 16:54,507
6/5/19 16:54,507
6/5/19 16:54,511
6/5/19 16:54,507
6/5/19 16:54,511
6/5/19 16:54,509
6/5/19 16:54,510
6/5/19 16:54,514
6/5/19 16:54,510
6/5/19 16:54,514
6/5/19 16:54,511
6/5/19 16:54,513
6/5/19 16:54,514
6/5/19 16:54,510
6/5/19 16:54,516
6/5/19 16:54,511
6/5/19 16:54,513
6/5/19 16:54,515
6/5/19 16:54,511
6/5/19 16:54,514
6/5/19 16:54,511
6/5/19 16:54,512
6/5/19 16:54,514
6/5/19 16:54,510
6/5/19 16:54,500
6/5/19 16:54,514
6/5/19 16:54,516
6/5/19 16:54,516
6/5/19 16:54,513
6/5/19 16:54,516
6/5/19 16:54,511
6/5/19 16:54,511
6/5/19 16:54,510
6/5/19 16:54,507
6/5/19 16:54,511
6/5/19 16:54,507
6/5/19 16:54,505
6/5/19 16:54,507
6/5/19 16:54,505
6/5/19 16:54,509
6/5/19 16:54,506
6/5/19 16:54,506
6/5/19 16:54,505
6/5/19 16:54,495
6/5/19 16:54,503
6/5/19 16:54,506
6/5/19 16:54,511
6/5/19 16:54,511
6/5/19 16:54,549
6/5/19 16:54,591
6/5/19 16:54,561
6/5/19 16:54,501
6/5/19 16:54,493
6/5/19 16:54,490
6/5/19 16:54,488
6/5/19 16:54,485
6/5/19 16:54,491
6/5/19 16:54,493
6/5/19 16:54,496
6/5/19 16:54,499
6/5/19 16:54,498
6/5/19 16:54,494
6/5/19 16:54,500
6/5/19 16:54,501
6/5/19 16:54,488
6/5/19 16:54,495
6/5/19 16:54,503
6/5/19 16:54,500
6/5/19 16:54,503
6/5/19 16:54,503
6/5/19 16:54,497
6/5/19 16:54,506
6/5/19 16:54,501
6/5/19 16:54,505
6/5/19 16:54,507
6/5/19 16:54,506
6/5/19 16:54,509
6/5/19 16:54,507
6/5/19 16:54,510
6/5/19 16:54,512
6/5/19 16:54,509
6/5/19 16:54,513
6/5/19 16:54,513
6/5/19 16:54,514
6/5/19 16:54,515
6/5/19 16:54,511
6/5/19 16:54,514
6/5/19 16:54,514
6/5/19 16:54,514
6/5/19 16:54,514
6/5/19 16:54,512
6/5/19 16:54,513
6/5/19 16:54,510
6/5/19 16:54,503
6/5/19 16:54,516
6/5/19 16:54,499
6/5/19 16:54,511
6/5/19 16:54,514
6/5/19 16:54,519
6/5/19 16:54,516
6/5/19 16:54,515
6/5/19 16:54,516
6/5/19 16:54,511
6/5/19 16:54,516
6/5/19 16:54,509
6/5/19 16:54,509
6/5/19 16:54,511
6/5/19 16:54,507
6/5/19 16:54,509
6/5/19 16:54,505
6/5/19 16:54,505
6/5/19 16:54,508
6/5/19 16:54,505
6/5/19 16:54,509
6/5/19 16:54,505
6/5/19 16:54,506
6/5/19 16:54,506
6/5/19 16:54,505
6/5/19 16:54,507
6/5/19 16:54,549
6/5/19 16:54,586
6/5/19 16:54,550
6/5/19 16:54,493
6/5/19 16:54,491
6/5/19 16:54,492
6/5/19 16:54,495
6/5/19 16:54,490
6/5/19 16:54,485
6/5/19 16:54,490
6/5/19 16:54,491
6/5/19 16:54,495
6/5/19 16:54,500
6/5/19 16:54,498
6/5/19 16:54,501
6/5/19 16:54,498
6/5/19 16:54,487
6/5/19 16:54,496
6/5/19 16:54,498
6/5/19 16:54,503
6/5/19 16:54,502
6/5/19 16:54,503
6/5/19 16:54,502
6/5/19 16:54,501
6/5/19 16:54,505
6/5/19 16:54,504
6/5/19 16:54,508
6/5/19 16:54,509
6/5/19 16:54,506
6/5/19 16:54,511
6/5/19 16:54,508
6/5/19 16:54,510
6/5/19 16:54,512
6/5/19 16:54,510
6/5/19 16:54,515
6/5/19 16:54,507
6/5/19 16:54,514
6/5/19 16:54,514
6/5/19 16:54,505
6/5/19 16:54,512
6/5/19 16:54,515
6/5/19 16:54,519
6/5/19 16:54,518
6/5/19 16:54,515
6/5/19 16:54,516
6/5/19 16:54,513
6/5/19 16:54,516
6/5/19 16:54,514
6/5/19 16:54,514
6/5/19 16:54,514
6/5/19 16:54,511
6/5/19 16:54,513
6/5/19 16:54,509
6/5/19 16:54,510
6/5/19 16:54,512
6/5/19 16:54,508
6/5/19 16:54,509
6/5/19 16:54,506
6/5/19 16:54,505
6/5/19 16:54,511
6/5/19 16:54,507
6/5/19 16:54,510
6/5/19 17:03,514
6/5/19 17:03,515
6/5/19 17:03,510
6/5/19 17:03,515
6/5/19 17:03,512
6/5/19 17:03,509
6/5/19 17:03,511
6/5/19 17:03,508
6/5/19 17:03,494
6/5/19 17:03,513
6/5/19 17:03,514
6/5/19 17:03,501
6/5/19 17:03,511
6/5/19 17:03,517
6/5/19 17:03,517
6/5/19 17:03,513
6/5/19 17:03,515
6/5/19 17:03,508
6/5/19 17:03,510
6/5/19 17:03,506
6/5/19 17:03,505
6/5/19 17:03,506
6/5/19 17:03,502
6/5/19 17:03,507
6/5/19 17:03,505
6/5/19 17:03,506
6/5/19 17:03,506
6/5/19 17:03,504
6/5/19 17:03,509
6/5/19 17:03,505
6/5/19 17:03,505
6/5/19 17:03,572
6/5/19 17:03,590
6/5/19 17:03,520
6/5/19 17:03,478
6/5/19 17:03,491
6/5/19 17:03,498
6/5/19 17:03,501
6/5/19 17:03,497
6/5/19 17:03,495
6/5/19 17:03,498
6/5/19 17:03,495
6/5/19 17:03,495
6/5/19 17:03,500
6/5/19 17:03,499
6/5/19 17:03,500
6/5/19 17:03,502
6/5/19 17:03,499
6/5/19 17:03,501
6/5/19 17:03,481
6/5/19 17:03,502
6/5/19 17:03,506
6/5/19 17:03,504
6/5/19 17:03,506
6/5/19 17:03,502
6/5/19 17:03,503
6/5/19 17:03,505
6/5/19 17:03,486
6/5/19 17:03,504
6/5/19 17:03,509
6/5/19 17:03,515
6/5/19 17:03,514
6/5/19 17:03,512
6/5/19 17:03,515
6/5/19 17:03,512
6/5/19 17:03,515
6/5/19 17:03,511
6/5/19 17:03,508
6/5/19 17:03,517
6/5/19 17:03,517
6/5/19 17:03,519
6/5/19 17:03,517
6/5/19 17:03,515
6/5/19 17:03,515
6/5/19 17:03,511
6/5/19 17:03,512
6/5/19 17:03,510
6/5/19 17:03,511
6/5/19 17:03,511
6/5/19 17:03,510
6/5/19 17:03,513
6/5/19 17:03,513
6/5/19 17:03,512
6/5/19 17:03,515
6/5/19 17:03,509
6/5/19 17:03,514
6/5/19 17:03,490
6/5/19 17:03,494
6/5/19 17:03,516
6/5/19 17:03,516
6/5/19 17:03,519
6/5/19 17:03,515
6/5/19 17:03,512
6/5/19 17:03,514
6/5/19 17:03,507
6/5/19 17:03,509
6/5/19 17:03,504
6/5/19 17:03,507
6/5/19 17:03,506
6/5/19 17:03,504
6/5/19 17:03,508
6/5/19 17:03,506
6/5/19 17:03,557
6/5/19 17:03,582
6/5/19 17:03,524
6/5/19 17:03,493
6/5/19 17:03,496
6/5/19 17:03,501
6/5/19 17:03,503
6/5/19 17:03,493
6/5/19 17:03,495
6/5/19 17:03,492
6/5/19 17:03,495
6/5/19 17:03,498
6/5/19 17:03,498
6/5/19 17:03,500
6/5/19 17:03,499
6/5/19 17:03,500
6/5/19 17:03,501
6/5/19 17:03,497
6/5/19 17:03,500
6/5/19 17:03,497
6/5/19 17:03,497
6/5/19 17:03,498
6/5/19 17:03,498
6/5/19 17:03,501
6/5/19 17:03,476
6/5/19 17:03,504
6/5/19 17:03,513
6/5/19 17:03,515
6/5/19 17:03,518
6/5/19 17:03,515
6/5/19 17:03,516
6/5/19 17:03,513
6/5/19 17:03,511
6/5/19 17:03,514
6/5/19 17:03,509
6/5/19 17:03,513
6/5/19 17:03,513
6/5/19 17:03,511
6/5/19 17:03,513
6/5/19 17:03,510
6/5/19 17:03,515
6/5/19 17:03,511
6/5/19 17:03,510
6/5/19 17:03,515
6/5/19 17:03,499
6/5/19 17:03,502
6/5/19 17:03,510
6/5/19 17:03,497
6/5/19 17:03,520
6/5/19 17:03,522
6/5/19 17:03,523
6/5/19 17:03,520
6/5/19 17:03,516
6/5/19 17:03,517
6/5/19 17:03,511
6/5/19 17:03,514
6/5/19 17:03,509
6/5/19 17:03,509
6/5/19 17:03,503
6/5/19 17:03,489
6/5/19 17:03,507
6/5/19 17:03,509
6/5/19 17:03,511
6/5/19 17:03,513
6/5/19 17:03,508
6/5/19 17:03,511
6/5/19 17:03,507
6/5/19 17:03,508
6/5/19 17:03,507
6/5/19 17:03,488
6/5/19 17:03,509
6/5/19 17:03,521
6/5/19 17:03,570
6/5/19 17:03,580
6/5/19 17:03,508
6/5/19 17:03,500
6/5/19 17:03,496
6/5/19 17:03,473
6/5/19 17:03,497
6/5/19 17:03,494
6/5/19 17:03,499
6/5/19 17:03,496
6/5/19 17:03,498
6/5/19 17:03,502
6/5/19 17:03,498
6/5/19 17:03,502
6/5/19 17:03,497
6/5/19 17:03,478
6/5/19 17:03,493
6/5/19 17:03,498
6/5/19 17:03,506
6/5/19 17:03,502
6/5/19 17:03,504
6/5/19 17:03,503
6/5/19 17:03,501
6/5/19 17:03,504
6/5/19 17:03,496
6/5/19 17:03,502
6/5/19 17:03,505
6/5/19 17:03,495
6/5/19 17:03,513
6/5/19 17:03,516
6/5/19 17:03,519
6/5/19 17:03,518
6/5/19 17:03,516
6/5/19 17:03,519
6/5/19 17:03,513
6/5/19 17:03,515
6/5/19 17:03,510
6/5/19 17:03,512
6/5/19 17:03,511
6/5/19 17:03,510
6/5/19 17:03,511
6/5/19 17:03,503
6/5/19 17:03,516
6/5/19 17:03,520
6/5/19 17:03,514
6/5/19 17:03,516
6/5/19 17:03,512
6/5/19 17:03,513
6/5/19 17:03,514
6/5/19 17:03,510
6/5/19 17:03,514
6/5/19 17:03,511
6/5/19 17:03,514
6/5/19 17:03,510
6/5/19 17:03,507
6/5/19 17:03,509
6/5/19 17:03,477
6/5/19 17:03,509
6/5/19 17:03,518
6/5/19 17:03,515
6/5/19 17:03,517
6/5/19 17:03,513
6/5/19 17:03,511
6/5/19 17:03,510
6/5/19 17:03,507
6/5/19 17:03,510
6/5/19 17:03,504
6/5/19 17:03,506
6/5/19 17:03,508
6/5/19 17:03,486
6/5/19 17:03,506
6/5/19 17:03,565
6/5/19 17:03,594
6/5/19 17:03,537
6/5/19 17:03,497
6/5/19 17:03,496
6/5/19 17:03,494
6/5/19 17:03,497
6/5/19 17:03,490
6/5/19 17:03,492
6/5/19 17:03,491
6/5/19 17:03,491
6/5/19 17:03,494
6/5/19 17:03,499
6/5/19 17:03,497
6/5/19 17:03,503
6/5/19 17:03,499
6/5/19 17:03,501
6/5/19 17:03,499
6/5/19 17:03,481
6/5/19 17:03,480
6/5/19 17:03,493
6/5/19 17:03,508
6/5/19 17:03,509
6/5/19 17:03,509
6/5/19 17:03,513
6/5/19 17:03,507
6/5/19 17:03,510
6/5/19 17:03,509
6/5/19 17:03,506
6/5/19 17:03,509
6/5/19 17:03,507
6/5/19 17:03,510
6/5/19 17:03,509
6/5/19 17:03,509
6/5/19 17:03,514
6/5/19 17:03,511
6/5/19 17:03,514
6/5/19 17:03,511
6/5/19 17:03,511
6/5/19 17:03,514
6/5/19 17:03,493
6/5/19 17:03,509
6/5/19 17:03,502
6/5/19 17:03,517
6/5/19 17:03,522
6/5/19 17:03,520
6/5/19 17:03,521
6/5/19 17:03,518
6/5/19 17:03,517
6/5/19 17:03,518
6/5/19 17:03,511
6/5/19 17:03,515
6/5/19 17:03,513
6/5/19 17:03,512
6/5/19 17:03,512
6/5/19 17:03,507
6/5/19 17:03,509
6/5/19 17:03,507
6/5/19 17:03,508
6/5/19 17:03,507
6/5/19 17:03,504
6/5/19 17:03,509
6/5/19 17:03,506
6/5/19 17:03,506
6/5/19 17:03,507
6/5/19 17:03,505
6/5/19 17:03,507
6/5/19 17:03,492
6/5/19 17:03,492
6/5/19 17:03,505
6/5/19 17:03,512
6/5/19 17:03,559
6/5/19 17:03,593
6/5/19 17:03,564
6/5/19 17:03,499
6/5/19 17:03,490
6/5/19 17:03,496
6/5/19 17:03,491
6/5/19 17:03,491
6/5/19 17:03,491
6/5/19 17:03,487
6/5/19 17:03,491
6/5/19 17:03,492
6/5/19 17:03,499
6/5/19 17:03,498
6/5/19 17:03,497
6/5/19 17:03,502
6/5/19 17:03,499
6/5/19 17:03,502
6/5/19 17:03,499
6/5/19 17:03,498
6/5/19 17:03,493
6/5/19 17:03,483
6/5/19 17:03,497
6/5/19 17:03,506
6/5/19 17:03,510
6/5/19 17:03,513
6/5/19 17:03,511
6/5/19 17:03,513
6/5/19 17:03,510
6/5/19 17:03,511
6/5/19 17:03,511
6/5/19 17:03,511
6/5/19 17:03,511
6/5/19 17:03,511
6/5/19 17:03,512
6/5/19 17:03,513
6/5/19 17:03,509
6/5/19 17:03,512
6/5/19 17:03,512
6/5/19 17:03,511
6/5/19 17:03,514
6/5/19 17:03,483
6/5/19 17:03,513
6/5/19 17:03,517
6/5/19 17:03,522
6/5/19 17:03,521
6/5/19 17:03,516
6/5/19 17:03,520
6/5/19 17:03,516
6/5/19 17:03,514
6/5/19 17:03,515
6/5/19 17:03,510
6/5/19 17:03,513
6/5/19 17:03,509
6/5/19 17:03,510
6/5/19 17:03,512
6/5/19 17:03,507
6/5/19 17:03,509
6/5/19 17:03,504
6/5/19 17:03,501
6/5/19 17:03,505
6/5/19 17:03,509
6/5/19 17:03,513
6/5/19 17:03,492
6/5/19 17:03,502
6/5/19 17:03,511
6/5/19 17:03,509
6/5/19 17:03,515
6/5/19 17:03,511
6/5/19 17:03,513
6/5/19 17:03,520
6/5/19 17:03,583
6/5/19 17:03,582
6/5/19 17:03,484
6/5/19 17:03,488
6/5/19 17:03,495
6/5/19 17:03,491
6/5/19 17:03,484
6/5/19 17:03,490
6/5/19 17:03,497
6/5/19 17:03,496
6/5/19 17:03,482
6/5/19 17:03,480
6/5/19 17:03,501
6/5/19 17:03,512
6/5/19 17:03,511
6/5/19 17:03,509
6/5/19 17:03,510
6/5/19 17:03,504
6/5/19 17:03,504
6/5/19 17:03,501
6/5/19 17:03,498
6/5/19 17:03,500
6/5/19 17:03,499
6/5/19 17:03,501
6/5/19 17:03,500
6/5/19 17:03,502
6/5/19 17:03,506
6/5/19 17:03,503
6/5/19 17:03,507
6/5/19 17:03,506
6/5/19 17:03,508
6/5/19 17:03,511
6/5/19 17:03,509
6/5/19 17:03,512
6/5/19 17:03,479
6/5/19 17:03,511
6/5/19 17:03,524
6/5/19 17:03,521
6/5/19 17:03,525
6/5/19 17:03,520
6/5/19 17:03,518
6/5/19 17:03,520
6/5/19 17:03,513
6/5/19 17:03,516
6/5/19 17:03,513
6/5/19 17:03,511
6/5/19 17:03,512
6/5/19 17:03,512
6/5/19 17:03,513
6/5/19 17:03,511
6/5/19 17:03,513
6/5/19 17:03,491
6/5/19 17:03,505
6/5/19 17:03,504
6/5/19 17:03,513
6/5/19 17:03,518
6/5/19 17:03,519
6/5/19 17:03,515
6/5/19 17:03,513
6/5/19 17:03,511
6/5/19 17:03,509
6/5/19 17:03,508
6/5/19 17:03,504
6/5/19 17:03,508
6/5/19 17:03,506
6/5/19 17:03,506
6/5/19 17:03,506
6/5/19 17:03,504
6/5/19 17:03,507
6/5/19 17:03,503
6/5/19 17:03,510
6/5/19 17:03,577
6/5/19 17:03,574
6/5/19 17:03,511
6/5/19 17:03,491
6/5/19 17:03,497
6/5/19 17:03,495
6/5/19 17:03,497
6/5/19 17:03,489
6/5/19 17:03,488
6/5/19 17:03,494
6/5/19 17:03,495
6/5/19 17:03,497
6/5/19 17:03,500
6/5/19 17:03,498
6/5/19 17:03,498
6/5/19 17:03,481
6/5/19 17:03,497
6/5/19 17:03,504
6/5/19 17:03,503
6/5/19 17:03,504
6/5/19 17:03,503
6/5/19 17:03,503
6/5/19 17:03,505
6/5/19 17:03,503
6/5/19 17:03,505
6/5/19 17:03,503
6/5/19 17:03,495
6/5/19 17:03,512
6/5/19 17:03,511
6/5/19 17:03,517
6/5/19 17:03,514
6/5/19 17:03,513
6/5/19 17:03,514
6/5/19 17:03,512
6/5/19 17:03,514
6/5/19 17:03,511
6/5/19 17:03,511
6/5/19 17:03,498
6/5/19 17:03,509
6/5/19 17:03,517
6/5/19 17:03,517
6/5/19 17:03,501
6/5/19 17:03,518
6/5/19 17:03,519
6/5/19 17:03,521
6/5/19 17:03,518
6/5/19 17:03,517
6/5/19 17:03,515
6/5/19 17:03,513
6/5/19 17:03,514
6/5/19 17:03,511
6/5/19 17:03,512
6/5/19 17:03,511
6/5/19 17:03,508
6/5/19 17:03,512
6/5/19 17:03,507
6/5/19 17:03,507
6/5/19 17:03,507
6/5/19 17:03,505
6/5/19 17:03,509
6/5/19 17:03,506
6/5/19 17:03,504
6/5/19 17:03,496
6/5/19 17:03,496
6/5/19 17:03,513
6/5/19 17:03,512
6/5/19 17:03,515
6/5/19 17:03,513
6/5/19 17:03,511
6/5/19 17:03,513
6/5/19 17:03,509
6/5/19 17:03,579
6/5/19 17:03,594
6/5/19 17:03,526
6/5/19 17:03,490
6/5/19 17:03,486
6/5/19 17:03,490
6/5/19 17:03,491
6/5/19 17:03,486
6/5/19 17:03,493
6/5/19 17:03,489
6/5/19 17:03,491
6/5/19 17:03,494
6/5/19 17:03,496
6/5/19 17:03,498
6/5/19 17:03,478
6/5/19 17:03,504
6/5/19 17:03,508
6/5/19 17:03,509
6/5/19 17:03,511
6/5/19 17:03,506
6/5/19 17:03,505
6/5/19 17:03,503
6/5/19 17:03,502
6/5/19 17:03,504
6/5/19 17:03,499
6/5/19 17:03,505
6/5/19 17:03,504
6/5/19 17:03,486
6/5/19 17:03,510
6/5/19 17:03,512
6/5/19 17:03,517
6/5/19 17:03,513
6/5/19 17:03,513
6/5/19 17:03,514
6/5/19 17:03,510
6/5/19 17:03,515
6/5/19 17:03,510
6/5/19 17:03,513
6/5/19 17:03,510
6/5/19 17:03,510
6/5/19 17:03,513
6/5/19 17:03,495
6/5/19 17:03,511
6/5/19 17:03,517
6/5/19 17:03,515
6/5/19 17:03,508
6/5/19 17:03,519
6/5/19 17:03,520
6/5/19 17:03,521
6/5/19 17:03,518
6/5/19 17:03,519
6/5/19 17:03,513
6/5/19 17:03,514
6/5/19 17:03,513
6/5/19 17:03,510
6/5/19 17:03,511
6/5/19 17:03,507
6/5/19 17:03,508
6/5/19 17:03,506
6/5/19 17:03,504
6/5/19 17:03,501
6/5/19 17:03,500
6/5/19 17:03,497
6/5/19 17:03,509
6/5/19 17:03,512
6/5/19 17:03,516
6/5/19 17:03,511
6/5/19 17:03,513
6/5/19 17:03,510
6/5/19 17:03,507
6/5/19 17:03,509
6/5/19 17:12,516
6/5/19 17:12,516
6/5/19 17:12,513
6/5/19 17:12,513
6/5/19 17:12,514
6/5/19 17:12,506
6/5/19 17:12,510
6/5/19 17:12,507
6/5/19 17:12,507
6/5/19 17:12,509
6/5/19 17:12,503
6/5/19 17:12,506
6/5/19 17:12,503
6/5/19 17:12,504
6/5/19 17:12,506
6/5/19 17:12,569
6/5/19 17:12,590
6/5/19 17:12,536
6/5/19 17:12,488
6/5/19 17:12,487
6/5/19 17:12,486
6/5/19 17:12,489
6/5/19 17:12,491
6/5/19 17:12,493
6/5/19 17:12,497
6/5/19 17:12,492
6/5/19 17:12,496
6/5/19 17:12,500
6/5/19 17:12,501
6/5/19 17:12,504
6/5/19 17:12,500
6/5/19 17:12,503
6/5/19 17:12,498
6/5/19 17:12,485
6/5/19 17:12,495
6/5/19 17:12,500
6/5/19 17:12,505
6/5/19 17:12,503
6/5/19 17:12,506
6/5/19 17:12,507
6/5/19 17:12,506
6/5/19 17:12,510
6/5/19 17:12,504
6/5/19 17:12,511
6/5/19 17:12,510
6/5/19 17:12,507
6/5/19 17:12,514
6/5/19 17:12,510
6/5/19 17:12,513
6/5/19 17:12,511
6/5/19 17:12,513
6/5/19 17:12,501
6/5/19 17:12,510
6/5/19 17:12,518
6/5/19 17:12,516
6/5/19 17:12,516
6/5/19 17:12,517
6/5/19 17:12,512
6/5/19 17:12,514
6/5/19 17:12,514
6/5/19 17:12,511
6/5/19 17:12,515
6/5/19 17:12,509
6/5/19 17:12,515
6/5/19 17:12,513
6/5/19 17:12,512
6/5/19 17:12,513
6/5/19 17:12,508
6/5/19 17:12,504
6/5/19 17:12,499
6/5/19 17:12,512
6/5/19 17:12,516
6/5/19 17:12,513
6/5/19 17:12,518
6/5/19 17:12,512
6/5/19 17:12,510
6/5/19 17:12,511
6/5/19 17:12,507
6/5/19 17:12,510
6/5/19 17:12,507
6/5/19 17:12,505
6/5/19 17:12,506
6/5/19 17:12,503
6/5/19 17:12,509
6/5/19 17:12,505
6/5/19 17:12,507
6/5/19 17:12,568
6/5/19 17:12,585
6/5/19 17:12,545
6/5/19 17:12,487
6/5/19 17:12,486
6/5/19 17:12,489
6/5/19 17:12,491
6/5/19 17:12,494
6/5/19 17:12,484
6/5/19 17:12,487
6/5/19 17:12,494
6/5/19 17:12,497
6/5/19 17:12,504
6/5/19 17:12,499
6/5/19 17:12,503
6/5/19 17:12,502
6/5/19 17:12,500
6/5/19 17:12,489
6/5/19 17:12,493
6/5/19 17:12,503
6/5/19 17:12,494
6/5/19 17:12,505
6/5/19 17:12,512
6/5/19 17:12,507
6/5/19 17:12,511
6/5/19 17:12,508
6/5/19 17:12,507
6/5/19 17:12,510
6/5/19 17:12,507
6/5/19 17:12,512
6/5/19 17:12,508
6/5/19 17:12,511
6/5/19 17:12,512
6/5/19 17:12,508
6/5/19 17:12,514
6/5/19 17:12,511
6/5/19 17:12,512
6/5/19 17:12,489
6/5/19 17:12,502
6/5/19 17:12,517
6/5/19 17:12,503
6/5/19 17:12,521
6/5/19 17:12,517
6/5/19 17:12,509
6/5/19 17:12,523
6/5/19 17:12,520
6/5/19 17:12,520
6/5/19 17:12,522
6/5/19 17:12,516
6/5/19 17:12,518
6/5/19 17:12,514
6/5/19 17:12,514
6/5/19 17:12,512
6/5/19 17:12,509
6/5/19 17:12,513
6/5/19 17:12,508
6/5/19 17:12,507
6/5/19 17:12,507
6/5/19 17:12,505
6/5/19 17:12,507
6/5/19 17:12,504
6/5/19 17:12,504
6/5/19 17:12,505
6/5/19 17:12,503
6/5/19 17:12,508
6/5/19 17:12,498
6/5/19 17:12,502
6/5/19 17:12,508
6/5/19 17:12,509
6/5/19 17:12,495
6/5/19 17:12,501
6/5/19 17:12,510
6/5/19 17:12,534
6/5/19 17:12,589
6/5/19 17:12,575
6/5/19 17:12,497
6/5/19 17:12,491
6/5/19 17:12,494
6/5/19 17:12,486
6/5/19 17:12,494
6/5/19 17:12,493
6/5/19 17:12,496
6/5/19 17:12,494
6/5/19 17:12,496
6/5/19 17:12,500
6/5/19 17:12,497
6/5/19 17:12,500
6/5/19 17:12,499
6/5/19 17:12,497
6/5/19 17:12,476
6/5/19 17:12,497
6/5/19 17:12,506
6/5/19 17:12,507
6/5/19 17:12,508
6/5/19 17:12,508
6/5/19 17:12,505
6/5/19 17:12,507
6/5/19 17:12,505
6/5/19 17:12,506
6/5/19 17:12,508
6/5/19 17:12,505
6/5/19 17:12,493
6/5/19 17:12,510
6/5/19 17:12,508
6/5/19 17:12,503
6/5/19 17:12,511
6/5/19 17:12,520
6/5/19 17:12,519
6/5/19 17:12,518
6/5/19 17:12,518
6/5/19 17:12,514
6/5/19 17:12,518
6/5/19 17:12,513
6/5/19 17:12,514
6/5/19 17:12,513
6/5/19 17:12,495
6/5/19 17:12,516
6/5/19 17:12,514
6/5/19 17:12,516
6/5/19 17:12,514
6/5/19 17:12,511
6/5/19 17:12,516
6/5/19 17:12,511
6/5/19 17:12,514
6/5/19 17:12,514
6/5/19 17:12,511
6/5/19 17:12,513
6/5/19 17:12,507
6/5/19 17:12,510
6/5/19 17:12,507
6/5/19 17:12,506
6/5/19 17:12,483
6/5/19 17:12,493
6/5/19 17:12,511
6/5/19 17:12,514
6/5/19 17:12,511
6/5/19 17:12,515
6/5/19 17:12,510
6/5/19 17:12,513
6/5/19 17:12,509
6/5/19 17:12,508
6/5/19 17:12,511
6/5/19 17:12,548
6/5/19 17:12,585
6/5/19 17:12,554
6/5/19 17:12,490
6/5/19 17:12,489
6/5/19 17:12,487
6/5/19 17:12,492
6/5/19 17:12,472
6/5/19 17:12,489
6/5/19 17:12,495
6/5/19 17:12,480
6/5/19 17:12,499
6/5/19 17:12,503
6/5/19 17:12,506
6/5/19 17:12,509
6/5/19 17:12,503
6/5/19 17:12,506
6/5/19 17:12,502
6/5/19 17:12,501
6/5/19 17:12,503
6/5/19 17:12,499
6/5/19 17:12,502
6/5/19 17:12,499
6/5/19 17:12,500
6/5/19 17:12,502
6/5/19 17:12,500
6/5/19 17:12,505
6/5/19 17:12,503
6/5/19 17:12,506
6/5/19 17:12,509
6/5/19 17:12,507
6/5/19 17:12,511
6/5/19 17:12,494
6/5/19 17:12,511
6/5/19 17:12,516
6/5/19 17:12,515
6/5/19 17:12,515
6/5/19 17:12,503
6/5/19 17:12,517
6/5/19 17:12,519
6/5/19 17:12,517
6/5/19 17:12,520
6/5/19 17:12,515
6/5/19 17:12,516
6/5/19 17:12,516
6/5/19 17:12,513
6/5/19 17:12,516
6/5/19 17:12,511
6/5/19 17:12,513
6/5/19 17:12,511
6/5/19 17:12,512
6/5/19 17:12,514
6/5/19 17:12,509
6/5/19 17:12,512
6/5/19 17:12,500
6/5/19 17:12,510
6/5/19 17:12,514
6/5/19 17:12,510
6/5/19 17:12,513
6/5/19 17:12,495
6/5/19 17:12,499
6/5/19 17:12,510
6/5/19 17:12,507
6/5/19 17:12,512
6/5/19 17:12,509
6/5/19 17:12,510
6/5/19 17:12,510
6/5/19 17:12,489
6/5/19 17:12,511
6/5/19 17:12,510
6/5/19 17:12,511
6/5/19 17:12,532
6/5/19 17:12,584
6/5/19 17:12,574
6/5/19 17:12,498
6/5/19 17:12,487
6/5/19 17:12,491
6/5/19 17:12,490
6/5/19 17:12,490
6/5/19 17:12,492
6/5/19 17:12,489
6/5/19 17:12,490
6/5/19 17:12,490
6/5/19 17:12,496
6/5/19 17:12,499
6/5/19 17:12,500
6/5/19 17:12,492
6/5/19 17:12,477
6/5/19 17:12,505
6/5/19 17:12,507
6/5/19 17:12,508
6/5/19 17:12,508
6/5/19 17:12,504
6/5/19 17:12,506
6/5/19 17:12,502
6/5/19 17:12,506
6/5/19 17:12,505
6/5/19 17:12,503
6/5/19 17:12,507
6/5/19 17:12,505
6/5/19 17:12,508
6/5/19 17:12,497
6/5/19 17:12,486
6/5/19 17:12,510
6/5/19 17:12,515
6/5/19 17:12,520
6/5/19 17:12,520
6/5/19 17:12,517
6/5/19 17:12,522
6/5/19 17:12,514
6/5/19 17:12,517
6/5/19 17:12,514
6/5/19 17:12,515
6/5/19 17:12,515
6/5/19 17:12,509
6/5/19 17:12,515
6/5/19 17:12,513
6/5/19 17:12,509
6/5/19 17:12,513
6/5/19 17:12,508
6/5/19 17:12,511
6/5/19 17:12,512
6/5/19 17:12,513
6/5/19 17:12,498
6/5/19 17:12,485
6/5/19 17:12,514
6/5/19 17:12,518
6/5/19 17:12,517
6/5/19 17:12,518
6/5/19 17:12,511
6/5/19 17:12,515
6/5/19 17:12,510
6/5/19 17:12,508
6/5/19 17:12,509
6/5/19 17:12,504
6/5/19 17:12,508
6/5/19 17:12,506
6/5/19 17:12,504
6/5/19 17:12,508
6/5/19 17:12,503
6/5/19 17:12,508
6/5/19 17:12,506
6/5/19 17:12,507
6/5/19 17:12,577
6/5/19 17:12,588
6/5/19 17:12,531
6/5/19 17:12,483
6/5/19 17:12,488
6/5/19 17:12,491
6/5/19 17:12,489
6/5/19 17:12,488
6/5/19 17:12,488
6/5/19 17:12,492
6/5/19 17:12,490
6/5/19 17:12,475
6/5/19 17:12,499
6/5/19 17:12,505
6/5/19 17:12,511
6/5/19 17:12,508
6/5/19 17:12,485
6/5/19 17:12,510
6/5/19 17:12,507
6/5/19 17:12,507
6/5/19 17:12,491
6/5/19 17:12,499
6/5/19 17:12,509
6/5/19 17:12,505
6/5/19 17:12,510
6/5/19 17:12,508
6/5/19 17:12,506
6/5/19 17:12,513
6/5/19 17:12,506
6/5/19 17:12,508
6/5/19 17:12,509
6/5/19 17:12,510
6/5/19 17:12,511
6/5/19 17:12,508
6/5/19 17:12,512
6/5/19 17:12,512
6/5/19 17:12,511
6/5/19 17:12,513
6/5/19 17:12,510
6/5/19 17:12,513
6/5/19 17:12,494
6/5/19 17:12,504
6/5/19 17:12,507
6/5/19 17:12,514
6/5/19 17:12,521
6/5/19 17:12,518
6/5/19 17:12,518
6/5/19 17:12,519
6/5/19 17:12,515
6/5/19 17:12,517
6/5/19 17:12,515
6/5/19 17:12,495
6/5/19 17:12,516
6/5/19 17:12,513
6/5/19 17:12,518
6/5/19 17:12,511
6/5/19 17:12,511
6/5/19 17:12,511
6/5/19 17:12,505
6/5/19 17:12,508
6/5/19 17:12,505
6/5/19 17:12,505
6/5/19 17:12,505
6/5/19 17:12,502
6/5/19 17:12,494
6/5/19 17:12,495
6/5/19 17:12,505
6/5/19 17:12,510
6/5/19 17:12,509
6/5/19 17:12,500
6/5/19 17:12,511
6/5/19 17:12,590
6/5/19 17:12,598
6/5/19 17:12,521
6/5/19 17:12,491
6/5/19 17:12,492
6/5/19 17:12,492
6/5/19 17:12,494
6/5/19 17:12,484
6/5/19 17:12,492
6/5/19 17:12,489
6/5/19 17:12,496
6/5/19 17:12,499
6/5/19 17:12,497
6/5/19 17:12,504
6/5/19 17:12,499
6/5/19 17:12,502
6/5/19 17:12,500
6/5/19 17:12,498
6/5/19 17:12,502
6/5/19 17:12,498
6/5/19 17:12,501
6/5/19 17:12,500
6/5/19 17:12,500
6/5/19 17:12,504
6/5/19 17:12,500
6/5/19 17:12,490
6/5/19 17:12,487
6/5/19 17:12,504
6/5/19 17:12,514
6/5/19 17:12,517
6/5/19 17:12,520
6/5/19 17:12,516
6/5/19 17:12,516
6/5/19 17:12,517
6/5/19 17:12,513
6/5/19 17:12,516
6/5/19 17:12,514
6/5/19 17:12,512
6/5/19 17:12,515
6/5/19 17:12,513
6/5/19 17:12,516
6/5/19 17:12,511
6/5/19 17:12,510
6/5/19 17:12,514
6/5/19 17:12,510
6/5/19 17:12,514
6/5/19 17:12,510
6/5/19 17:12,513
6/5/19 17:12,512
6/5/19 17:12,510
6/5/19 17:12,517
6/5/19 17:12,510
6/5/19 17:12,484
6/5/19 17:12,503
6/5/19 17:12,514
6/5/19 17:12,520
6/5/19 17:12,515
6/5/19 17:12,516
6/5/19 17:12,515
6/5/19 17:12,508
6/5/19 17:12,514
6/5/19 17:12,506
6/5/19 17:12,507
6/5/19 17:12,507
6/5/19 17:12,506
6/5/19 17:12,507
6/5/19 17:12,504
6/5/19 17:12,507
6/5/19 17:12,507
6/5/19 17:12,503
6/5/19 17:12,507
6/5/19 17:12,506
6/5/19 17:12,579
6/5/19 17:12,570
6/5/19 17:12,512
6/5/19 17:12,490
6/5/19 17:12,493
6/5/19 17:12,500
6/5/19 17:12,499
6/5/19 17:12,489
6/5/19 17:12,497
6/5/19 17:12,493
6/5/19 17:12,499
6/5/19 17:12,500
6/5/19 17:12,485
6/5/19 17:12,486
6/5/19 17:12,499
6/5/19 17:12,508
6/5/19 17:12,507
6/5/19 17:12,506
6/5/19 17:12,508
6/5/19 17:12,502
6/5/19 17:12,504
6/5/19 17:12,501
6/5/19 17:12,501
6/5/19 17:12,503
6/5/19 17:12,499
6/5/19 17:12,496
6/5/19 17:12,505
6/5/19 17:12,510
6/5/19 17:12,514
6/5/19 17:12,508
6/5/19 17:12,514
6/5/19 17:12,510
6/5/19 17:12,510
6/5/19 17:12,513
6/5/19 17:12,508
6/5/19 17:12,514
6/5/19 17:12,498
6/5/19 17:12,501
6/5/19 17:12,514
6/5/19 17:12,514
6/5/19 17:12,520
6/5/19 17:12,515
6/5/19 17:12,516
6/5/19 17:12,516
6/5/19 17:12,512
6/5/19 17:12,516
6/5/19 17:12,513
6/5/19 17:12,514
6/5/19 17:12,513
6/5/19 17:12,509
6/5/19 17:12,515
6/5/19 17:12,508
6/5/19 17:12,511
6/5/19 17:12,513
6/5/19 17:12,509
6/5/19 17:12,514
6/5/19 17:12,492
6/5/19 17:12,509
6/5/19 17:12,512
6/5/19 17:12,511
6/5/19 17:12,512
6/5/19 17:12,505
6/5/19 17:12,492
6/5/19 17:12,501
6/5/19 17:12,507
6/5/19 17:12,513
6/5/19 17:12,507
6/5/19 17:12,513
6/5/19 17:12,511
6/5/19 17:12,507
6/5/19 17:12,513
6/5/19 17:12,576
6/5/19 17:12,593
6/5/19 17:12,521
6/5/19 17:12,486
6/5/19 17:12,490
6/5/19 17:12,487
6/5/19 17:12,496
6/5/19 17:12,490
6/5/19 17:12,478
6/5/19 17:12,497
6/5/19 17:12,492
6/5/19 17:12,491
6/5/19 17:12,491
6/5/19 17:12,503
6/5/19 17:12,510
6/5/19 17:21,504
6/5/19 17:21,505
6/5/19 17:21,504
6/5/19 17:21,505
6/5/19 17:21,500
6/5/19 17:21,503
6/5/19 17:21,500
6/5/19 17:21,500
6/5/19 17:21,504
6/5/19 17:21,501
6/5/19 17:21,508
6/5/19 17:21,503
6/5/19 17:21,495
6/5/19 17:21,502
6/5/19 17:21,507
6/5/19 17:21,515
6/5/19 17:21,513
6/5/19 17:21,515
6/5/19 17:21,515
6/5/19 17:21,513
6/5/19 17:21,517
6/5/19 17:21,512
6/5/19 17:21,516
6/5/19 17:21,516
6/5/19 17:21,512
6/5/19 17:21,515
6/5/19 17:21,504
6/5/19 17:21,509
6/5/19 17:21,515
6/5/19 17:21,516
6/5/19 17:21,501
6/5/19 17:21,512
6/5/19 17:21,515
6/5/19 17:21,517
6/5/19 17:21,517
6/5/19 17:21,519
6/5/19 17:21,514
6/5/19 17:21,515
6/5/19 17:21,514
6/5/19 17:21,510
6/5/19 17:21,513
6/5/19 17:21,508
6/5/19 17:21,509
6/5/19 17:21,492
6/5/19 17:21,506
6/5/19 17:21,513
6/5/19 17:21,507
6/5/19 17:21,511
6/5/19 17:21,508
6/5/19 17:21,490
6/5/19 17:21,507
6/5/19 17:21,506
6/5/19 17:21,511
6/5/19 17:21,510
6/5/19 17:21,508
6/5/19 17:21,512
6/5/19 17:21,578
6/5/19 17:21,598
6/5/19 17:21,533
6/5/19 17:21,486
6/5/19 17:21,487
6/5/19 17:21,488
6/5/19 17:21,485
6/5/19 17:21,489
6/5/19 17:21,489
6/5/19 17:21,496
6/5/19 17:21,496
6/5/19 17:21,496
6/5/19 17:21,498
6/5/19 17:21,497
6/5/19 17:21,494
6/5/19 17:21,499
6/5/19 17:21,505
6/5/19 17:21,502
6/5/19 17:21,504
6/5/19 17:21,503
6/5/19 17:21,501
6/5/19 17:21,503
6/5/19 17:21,501
6/5/19 17:21,503
6/5/19 17:21,504
6/5/19 17:21,502
6/5/19 17:21,506
6/5/19 17:21,505
6/5/19 17:21,507
6/5/19 17:21,510
6/5/19 17:21,506
6/5/19 17:21,512
6/5/19 17:21,504
6/5/19 17:21,508
6/5/19 17:21,501
6/5/19 17:21,507
6/5/19 17:21,521
6/5/19 17:21,517
6/5/19 17:21,521
6/5/19 17:21,520
6/5/19 17:21,517
6/5/19 17:21,520
6/5/19 17:21,514
6/5/19 17:21,515
6/5/19 17:21,514
6/5/19 17:21,511
6/5/19 17:21,514
6/5/19 17:21,510
6/5/19 17:21,514
6/5/19 17:21,495
6/5/19 17:21,510
6/5/19 17:21,516
6/5/19 17:21,514
6/5/19 17:21,516
6/5/19 17:21,514
6/5/19 17:21,510
6/5/19 17:21,513
6/5/19 17:21,508
6/5/19 17:21,510
6/5/19 17:21,508
6/5/19 17:21,506
6/5/19 17:21,508
6/5/19 17:21,505
6/5/19 17:21,508
6/5/19 17:21,504
6/5/19 17:21,492
6/5/19 17:21,493
6/5/19 17:21,507
6/5/19 17:21,514
6/5/19 17:21,514
6/5/19 17:21,513
6/5/19 17:21,514
6/5/19 17:21,518
6/5/19 17:21,595
6/5/19 17:21,584
6/5/19 17:21,498
6/5/19 17:21,488
6/5/19 17:21,488
6/5/19 17:21,493
6/5/19 17:21,484
6/5/19 17:21,487
6/5/19 17:21,492
6/5/19 17:21,489
6/5/19 17:21,495
6/5/19 17:21,494
6/5/19 17:21,498
6/5/19 17:21,501
6/5/19 17:21,500
6/5/19 17:21,502
6/5/19 17:21,499
6/5/19 17:21,500
6/5/19 17:21,501
6/5/19 17:21,499
6/5/19 17:21,502
6/5/19 17:21,499
6/5/19 17:21,502
6/5/19 17:21,502
6/5/19 17:21,502
6/5/19 17:21,507
6/5/19 17:21,505
6/5/19 17:21,508
6/5/19 17:21,508
6/5/19 17:21,494
6/5/19 17:21,513
6/5/19 17:21,500
6/5/19 17:21,514
6/5/19 17:21,517
6/5/19 17:21,518
6/5/19 17:21,522
6/5/19 17:21,515
6/5/19 17:21,518
6/5/19 17:21,518
6/5/19 17:21,514
6/5/19 17:21,518
6/5/19 17:21,511
6/5/19 17:21,514
6/5/19 17:21,512
6/5/19 17:21,511
6/5/19 17:21,514
6/5/19 17:21,510
6/5/19 17:21,512
6/5/19 17:21,510
6/5/19 17:21,511
6/5/19 17:21,515
6/5/19 17:21,509
6/5/19 17:21,515
6/5/19 17:21,510
6/5/19 17:21,509
6/5/19 17:21,511
6/5/19 17:21,508
6/5/19 17:21,510
6/5/19 17:21,508
6/5/19 17:21,501
6/5/19 17:21,482
6/5/19 17:21,504
6/5/19 17:21,514
6/5/19 17:21,514
6/5/19 17:21,513
6/5/19 17:21,514
6/5/19 17:21,510
6/5/19 17:21,513
6/5/19 17:21,509
6/5/19 17:21,509
6/5/19 17:21,508
6/5/19 17:21,506
6/5/19 17:21,507
6/5/19 17:21,518
6/5/19 17:21,589
6/5/19 17:21,583
6/5/19 17:21,496
6/5/19 17:21,486
6/5/19 17:21,480
6/5/19 17:21,488
6/5/19 17:21,473
6/5/19 17:21,486
6/5/19 17:21,500
6/5/19 17:21,498
6/5/19 17:21,502
6/5/19 17:21,506
6/5/19 17:21,505
6/5/19 17:21,506
6/5/19 17:21,501
6/5/19 17:21,502
6/5/19 17:21,499
6/5/19 17:21,499
6/5/19 17:21,501
6/5/19 17:21,498
6/5/19 17:21,498
6/5/19 17:21,499
6/5/19 17:21,500
6/5/19 17:21,502
6/5/19 17:21,502
6/5/19 17:21,504
6/5/19 17:21,498
6/5/19 17:21,506
6/5/19 17:21,513
6/5/19 17:21,510
6/5/19 17:21,514
6/5/19 17:21,513
6/5/19 17:21,498
6/5/19 17:21,513
6/5/19 17:21,514
6/5/19 17:21,518
6/5/19 17:21,516
6/5/19 17:21,516
6/5/19 17:21,517
6/5/19 17:21,513
6/5/19 17:21,516
6/5/19 17:21,516
6/5/19 17:21,514
6/5/19 17:21,515
6/5/19 17:21,511
6/5/19 17:21,515
6/5/19 17:21,510
6/5/19 17:21,511
6/5/19 17:21,512
6/5/19 17:21,509
6/5/19 17:21,514
6/5/19 17:21,511
6/5/19 17:21,513
6/5/19 17:21,498
6/5/19 17:21,507
6/5/19 17:21,515
6/5/19 17:21,511
6/5/19 17:21,512
6/5/19 17:21,511
6/5/19 17:21,507
6/5/19 17:21,507
6/5/19 17:21,495
6/5/19 17:21,506
6/5/19 17:21,503
6/5/19 17:21,504
6/5/19 17:21,515
6/5/19 17:21,513
6/5/19 17:21,514
6/5/19 17:21,513
6/5/19 17:21,510
6/5/19 17:21,510
6/5/19 17:21,518
6/5/19 17:21,588
6/5/19 17:21,585
6/5/19 17:21,499
6/5/19 17:21,488
6/5/19 17:21,485
6/5/19 17:21,487
6/5/19 17:21,491
6/5/19 17:21,490
6/5/19 17:21,492
6/5/19 17:21,482
6/5/19 17:21,473
6/5/19 17:21,495
6/5/19 17:21,503
6/5/19 17:21,509
6/5/19 17:21,507
6/5/19 17:21,508
6/5/19 17:21,504
6/5/19 17:21,503
6/5/19 17:21,506
6/5/19 17:21,500
6/5/19 17:21,504
6/5/19 17:21,500
6/5/19 17:21,500
6/5/19 17:21,505
6/5/19 17:21,501
6/5/19 17:21,496
6/5/19 17:21,508
6/5/19 17:21,510
6/5/19 17:21,511
6/5/19 17:21,510
6/5/19 17:21,503
6/5/19 17:21,501
6/5/19 17:21,512
6/5/19 17:21,517
6/5/19 17:21,514
6/5/19 17:21,520
6/5/19 17:21,515
6/5/19 17:21,515
6/5/19 17:21,516
6/5/19 17:21,511
6/5/19 17:21,515
6/5/19 17:21,513
6/5/19 17:21,514
6/5/19 17:21,499
6/5/19 17:21,508
6/5/19 17:21,501
6/5/19 17:21,510
6/5/19 17:21,518
6/5/19 17:21,521
6/5/19 17:21,517
6/5/19 17:21,520
6/5/19 17:21,516
6/5/19 17:21,516
6/5/19 17:21,513
6/5/19 17:21,508
6/5/19 17:21,514
6/5/19 17:21,506
6/5/19 17:21,509
6/5/19 17:21,508
6/5/19 17:21,505
6/5/19 17:21,508
6/5/19 17:21,503
6/5/19 17:21,505
6/5/19 17:21,497
6/5/19 17:21,506
6/5/19 17:21,512
6/5/19 17:21,492
6/5/19 17:21,507
6/5/19 17:21,512
6/5/19 17:21,511
6/5/19 17:21,516
6/5/19 17:21,509
6/5/19 17:21,587
6/5/19 17:21,599
6/5/19 17:21,522
6/5/19 17:21,483
6/5/19 17:21,488
6/5/19 17:21,498
6/5/19 17:21,493
6/5/19 17:21,488
6/5/19 17:21,494
6/5/19 17:21,490
6/5/19 17:21,493
6/5/19 17:21,493
6/5/19 17:21,495
6/5/19 17:21,502
6/5/19 17:21,498
6/5/19 17:21,505
6/5/19 17:21,498
6/5/19 17:21,498
6/5/19 17:21,487
6/5/19 17:21,495
6/5/19 17:21,503
6/5/19 17:21,503
6/5/19 17:21,505
6/5/19 17:21,506
6/5/19 17:21,503
6/5/19 17:21,508
6/5/19 17:21,507
6/5/19 17:21,493
6/5/19 17:21,512
6/5/19 17:21,510
6/5/19 17:21,515
6/5/19 17:21,513
6/5/19 17:21,514
6/5/19 17:21,514
6/5/19 17:21,510
6/5/19 17:21,516
6/5/19 17:21,511
6/5/19 17:21,514
6/5/19 17:21,512
6/5/19 17:21,510
6/5/19 17:21,514
6/5/19 17:21,509
6/5/19 17:21,511
6/5/19 17:21,514
6/5/19 17:21,510
6/5/19 17:21,515
6/5/19 17:21,510
6/5/19 17:21,513
6/5/19 17:21,513
6/5/19 17:21,511
6/5/19 17:21,515
6/5/19 17:21,509
6/5/19 17:21,502
6/5/19 17:21,514
6/5/19 17:21,514
6/5/19 17:21,516
6/5/19 17:21,510
6/5/19 17:21,505
6/5/19 17:21,502
6/5/19 17:21,506
6/5/19 17:21,513
6/5/19 17:21,511
6/5/19 17:21,514
6/5/19 17:21,509
6/5/19 17:21,507
6/5/19 17:21,510
6/5/19 17:21,504
6/5/19 17:21,509
6/5/19 17:21,506
6/5/19 17:21,507
6/5/19 17:21,494
6/5/19 17:21,506
6/5/19 17:21,568
6/5/19 17:21,596
6/5/19 17:21,550
6/5/19 17:21,493
6/5/19 17:21,485
6/5/19 17:21,493
6/5/19 17:21,483
6/5/19 17:21,489
6/5/19 17:21,491
6/5/19 17:21,492
6/5/19 17:21,496
6/5/19 17:21,492
6/5/19 17:21,495
6/5/19 17:21,502
6/5/19 17:21,499
6/5/19 17:21,503
6/5/19 17:21,499
6/5/19 17:21,502
6/5/19 17:21,501
6/5/19 17:21,498
6/5/19 17:21,502
6/5/19 17:21,482
6/5/19 17:21,487
6/5/19 17:21,506
6/5/19 17:21,509
6/5/19 17:21,514
6/5/19 17:21,511
6/5/19 17:21,513
6/5/19 17:21,514
6/5/19 17:21,510
6/5/19 17:21,514
6/5/19 17:21,510
6/5/19 17:21,512
6/5/19 17:21,511
6/5/19 17:21,508
6/5/19 17:21,514
6/5/19 17:21,510
6/5/19 17:21,513
6/5/19 17:21,512
6/5/19 17:21,512
6/5/19 17:21,498
6/5/19 17:21,505
6/5/19 17:21,515
6/5/19 17:21,515
6/5/19 17:21,503
6/5/19 17:21,521
6/5/19 17:21,517
6/5/19 17:21,520
6/5/19 17:21,516
6/5/19 17:21,515
6/5/19 17:21,518
6/5/19 17:21,513
6/5/19 17:21,517
6/5/19 17:21,512
6/5/19 17:21,509
6/5/19 17:21,512
6/5/19 17:21,505
6/5/19 17:21,510
6/5/19 17:21,507
6/5/19 17:21,508
6/5/19 17:21,507
6/5/19 17:21,503
6/5/19 17:21,508
6/5/19 17:21,506
6/5/19 17:21,506
6/5/19 17:21,506
6/5/19 17:21,503
6/5/19 17:21,508
6/5/19 17:21,505
6/5/19 17:21,507
6/5/19 17:21,507
6/5/19 17:21,505
6/5/19 17:21,537
6/5/19 17:21,585
6/5/19 17:21,570
6/5/19 17:21,495
6/5/19 17:21,486
6/5/19 17:21,492
6/5/19 17:21,488
6/5/19 17:21,493
6/5/19 17:21,488
6/5/19 17:21,484
6/5/19 17:21,491
6/5/19 17:21,490
6/5/19 17:21,484
6/5/19 17:21,496
6/5/19 17:21,494
6/5/19 17:21,511
6/5/19 17:21,509
6/5/19 17:21,513
6/5/19 17:21,509
6/5/19 17:21,504
6/5/19 17:21,505
6/5/19 17:21,501
6/5/19 17:21,501
6/5/19 17:21,502
6/5/19 17:21,500
6/5/19 17:21,503
6/5/19 17:21,502
6/5/19 17:21,507
6/5/19 17:21,504
6/5/19 17:21,506
6/5/19 17:21,510
6/5/19 17:21,505
6/5/19 17:21,511
6/5/19 17:21,510
6/5/19 17:21,512
6/5/19 17:21,514
6/5/19 17:21,495
6/5/19 17:21,514
6/5/19 17:21,517
6/5/19 17:21,515
6/5/19 17:21,519
6/5/19 17:21,500
6/5/19 17:21,509
6/5/19 17:21,513
6/5/19 17:21,515
6/5/19 17:21,519
6/5/19 17:21,515
6/5/19 17:21,517
6/5/19 17:21,514
6/5/19 17:21,513
6/5/19 17:21,515
6/5/19 17:21,510
6/5/19 17:21,517
6/5/19 17:21,511
6/5/19 17:21,512
6/5/19 17:21,513
6/5/19 17:21,509
6/5/19 17:21,509
6/5/19 17:21,505
6/5/19 17:21,508
6/5/19 17:21,508
6/5/19 17:21,505
6/5/19 17:21,501
6/5/19 17:21,507
6/5/19 17:21,495
6/5/19 17:21,504
6/5/19 17:21,508
6/5/19 17:21,513
6/5/19 17:21,509
6/5/19 17:21,512
6/5/19 17:21,513
6/5/19 17:21,507
6/5/19 17:21,511
6/5/19 17:21,511
6/5/19 17:21,589
6/5/19 17:21,598
6/5/19 17:21,508
6/5/19 17:21,488
6/5/19 17:21,483
6/5/19 17:21,488
6/5/19 17:21,484
6/5/19 17:21,484
6/5/19 17:21,491
6/5/19 17:21,490
6/5/19 17:21,497
6/5/19 17:21,500
6/5/19 17:21,499
6/5/19 17:21,502
6/5/19 17:21,497
6/5/19 17:21,500
6/5/19 17:21,499
6/5/19 17:21,498
6/5/19 17:21,500
6/5/19 17:21,490
6/5/19 17:21,498
6/5/19 17:21,486
6/5/19 17:21,502
6/5/19 17:21,510
6/5/19 17:21,509
6/5/19 17:21,513
6/5/19 17:21,510
6/5/19 17:21,510
6/5/19 17:21,511
6/5/19 17:21,509
6/5/19 17:21,513
6/5/19 17:21,511
6/5/19 17:21,510
6/5/19 17:21,516
6/5/19 17:21,511
6/5/19 17:30,503
6/5/19 17:30,505
6/5/19 17:30,503
6/5/19 17:30,506
6/5/19 17:30,502
6/5/19 17:30,502
6/5/19 17:30,502
6/5/19 17:30,496
6/5/19 17:30,501
6/5/19 17:30,499
6/5/19 17:30,498
6/5/19 17:30,499
6/5/19 17:30,500
6/5/19 17:30,503
6/5/19 17:30,501
6/5/19 17:30,503
6/5/19 17:30,507
6/5/19 17:30,503
6/5/19 17:30,508
6/5/19 17:30,509
6/5/19 17:30,509
6/5/19 17:30,510
6/5/19 17:30,508
6/5/19 17:30,503
6/5/19 17:30,498
6/5/19 17:30,515
6/5/19 17:30,521
6/5/19 17:30,520
6/5/19 17:30,523
6/5/19 17:30,517
6/5/19 17:30,520
6/5/19 17:30,517
6/5/19 17:30,513
6/5/19 17:30,516
6/5/19 17:30,511
6/5/19 17:30,513
6/5/19 17:30,511
6/5/19 17:30,510
6/5/19 17:30,514
6/5/19 17:30,511
6/5/19 17:30,514
6/5/19 17:30,510
6/5/19 17:30,511
6/5/19 17:30,513
6/5/19 17:30,508
6/5/19 17:30,510
6/5/19 17:30,508
6/5/19 17:30,508
6/5/19 17:30,509
6/5/19 17:30,505
6/5/19 17:30,507
6/5/19 17:30,506
6/5/19 17:30,505
6/5/19 17:30,497
6/5/19 17:30,488
6/5/19 17:30,502
6/5/19 17:30,511
6/5/19 17:30,514
6/5/19 17:30,515
6/5/19 17:30,511
6/5/19 17:30,515
6/5/19 17:30,511
6/5/19 17:30,510
6/5/19 17:30,586
6/5/19 17:30,599
6/5/19 17:30,536
6/5/19 17:30,484
6/5/19 17:30,484
6/5/19 17:30,486
6/5/19 17:30,488
6/5/19 17:30,489
6/5/19 17:30,490
6/5/19 17:30,491
6/5/19 17:30,493
6/5/19 17:30,493
6/5/19 17:30,498
6/5/19 17:30,497
6/5/19 17:30,501
6/5/19 17:30,502
6/5/19 17:30,500
6/5/19 17:30,503
6/5/19 17:30,500
6/5/19 17:30,500
6/5/19 17:30,500
6/5/19 17:30,500
6/5/19 17:30,486
6/5/19 17:30,483
6/5/19 17:30,503
6/5/19 17:30,511
6/5/19 17:30,513
6/5/19 17:30,516
6/5/19 17:30,513
6/5/19 17:30,514
6/5/19 17:30,514
6/5/19 17:30,511
6/5/19 17:30,515
6/5/19 17:30,509
6/5/19 17:30,513
6/5/19 17:30,514
6/5/19 17:30,510
6/5/19 17:30,514
6/5/19 17:30,512
6/5/19 17:30,514
6/5/19 17:30,511
6/5/19 17:30,510
6/5/19 17:30,505
6/5/19 17:30,506
6/5/19 17:30,515
6/5/19 17:30,517
6/5/19 17:30,514
6/5/19 17:30,518
6/5/19 17:30,511
6/5/19 17:30,516
6/5/19 17:30,511
6/5/19 17:30,512
6/5/19 17:30,514
6/5/19 17:30,510
6/5/19 17:30,515
6/5/19 17:30,510
6/5/19 17:30,507
6/5/19 17:30,511
6/5/19 17:30,506
6/5/19 17:30,511
6/5/19 17:30,506
6/5/19 17:30,505
6/5/19 17:30,509
6/5/19 17:30,505
6/5/19 17:30,508
6/5/19 17:30,506
6/5/19 17:30,505
6/5/19 17:30,508
6/5/19 17:30,504
6/5/19 17:30,510
6/5/19 17:30,506
6/5/19 17:30,507
6/5/19 17:30,509
6/5/19 17:30,518
6/5/19 17:30,595
6/5/19 17:30,575
6/5/19 17:30,496
6/5/19 17:30,487
6/5/19 17:30,482
6/5/19 17:30,484
6/5/19 17:30,474
6/5/19 17:30,491
6/5/19 17:30,493
6/5/19 17:30,494
6/5/19 17:30,502
6/5/19 17:30,502
6/5/19 17:30,504
6/5/19 17:30,506
6/5/19 17:30,503
6/5/19 17:30,506
6/5/19 17:30,503
6/5/19 17:30,504
6/5/19 17:30,503
6/5/19 17:30,499
6/5/19 17:30,502
6/5/19 17:30,497
6/5/19 17:30,501
6/5/19 17:30,502
6/5/19 17:30,470
6/5/19 17:30,498
6/5/19 17:30,507
6/5/19 17:30,514
6/5/19 17:30,514
6/5/19 17:30,514
6/5/19 17:30,517
6/5/19 17:30,512
6/5/19 17:30,517
6/5/19 17:30,513
6/5/19 17:30,512
6/5/19 17:30,514
6/5/19 17:30,511
6/5/19 17:30,514
6/5/19 17:30,511
6/5/19 17:30,510
6/5/19 17:30,515
6/5/19 17:30,509
6/5/19 17:30,515
6/5/19 17:30,512
6/5/19 17:30,510
6/5/19 17:30,514
6/5/19 17:30,509
6/5/19 17:30,513
6/5/19 17:30,510
6/5/19 17:30,510
6/5/19 17:30,514
6/5/19 17:30,509
6/5/19 17:30,514
6/5/19 17:30,510
6/5/19 17:30,511
6/5/19 17:30,513
6/5/19 17:30,509
6/5/19 17:30,512
6/5/19 17:30,506
6/5/19 17:30,508
6/5/19 17:30,510
6/5/19 17:30,505
6/5/19 17:30,509
6/5/19 17:30,503
6/5/19 17:30,500
6/5/19 17:30,508
6/5/19 17:30,495
6/5/19 17:30,511
6/5/19 17:30,512
6/5/19 17:30,516
6/5/19 17:30,515
6/5/19 17:30,510
6/5/19 17:30,515
6/5/19 17:30,506
6/5/19 17:30,515
6/5/19 17:30,605
6/5/19 17:30,589
6/5/19 17:30,500
6/5/19 17:30,481
6/5/19 17:30,489
6/5/19 17:30,494
6/5/19 17:30,470
6/5/19 17:30,484
6/5/19 17:30,485
6/5/19 17:30,495
6/5/19 17:30,497
6/5/19 17:30,499
6/5/19 17:30,504
6/5/19 17:30,498
6/5/19 17:30,501
6/5/19 17:30,500
6/5/19 17:30,499
6/5/19 17:30,501
6/5/19 17:30,496
6/5/19 17:30,502
6/5/19 17:30,500
6/5/19 17:30,498
6/5/19 17:30,491
6/5/19 17:30,497
6/5/19 17:30,508
6/5/19 17:30,508
6/5/19 17:30,509
6/5/19 17:30,514
6/5/19 17:30,509
6/5/19 17:30,513
6/5/19 17:30,511
6/5/19 17:30,511
6/5/19 17:30,512
6/5/19 17:30,502
6/5/19 17:30,514
6/5/19 17:30,499
6/5/19 17:30,515
6/5/19 17:30,522
6/5/19 17:30,517
6/5/19 17:30,523
6/5/19 17:30,519
6/5/19 17:30,518
6/5/19 17:30,516
6/5/19 17:30,505
6/5/19 17:30,512
6/5/19 17:30,515
6/5/19 17:30,514
6/5/19 17:30,516
6/5/19 17:30,494
6/5/19 17:30,513
6/5/19 17:30,516
6/5/19 17:30,518
6/5/19 17:30,520
6/5/19 17:30,514
6/5/19 17:30,514
6/5/19 17:30,510
6/5/19 17:30,510
6/5/19 17:30,510
6/5/19 17:30,507
6/5/19 17:30,511
6/5/19 17:30,486
6/5/19 17:30,505
6/5/19 17:30,509
6/5/19 17:30,509
6/5/19 17:30,513
6/5/19 17:30,507
6/5/19 17:30,509
6/5/19 17:30,507
6/5/19 17:30,505
6/5/19 17:30,509
6/5/19 17:30,505
6/5/19 17:30,506
6/5/19 17:30,516
6/5/19 17:30,585
6/5/19 17:30,591
6/5/19 17:30,498
6/5/19 17:30,487
6/5/19 17:30,485
6/5/19 17:30,486
6/5/19 17:30,487
6/5/19 17:30,470
6/5/19 17:30,470
6/5/19 17:30,490
6/5/19 17:30,496
6/5/19 17:30,506
6/5/19 17:30,506
6/5/19 17:30,511
6/5/19 17:30,508
6/5/19 17:30,504
6/5/19 17:30,506
6/5/19 17:30,500
6/5/19 17:30,503
6/5/19 17:30,501
6/5/19 17:30,501
6/5/19 17:30,502
6/5/19 17:30,499
6/5/19 17:30,503
6/5/19 17:30,502
6/5/19 17:30,503
6/5/19 17:30,507
6/5/19 17:30,503
6/5/19 17:30,507
6/5/19 17:30,506
6/5/19 17:30,509
6/5/19 17:30,509
6/5/19 17:30,509
6/5/19 17:30,497
6/5/19 17:30,496
6/5/19 17:30,515
6/5/19 17:30,521
6/5/19 17:30,520
6/5/19 17:30,522
6/5/19 17:30,520
6/5/19 17:30,518
6/5/19 17:30,518
6/5/19 17:30,515
6/5/19 17:30,517
6/5/19 17:30,513
6/5/19 17:30,513
6/5/19 17:30,513
6/5/19 17:30,507
6/5/19 17:30,515
6/5/19 17:30,510
6/5/19 17:30,513
6/5/19 17:30,513
6/5/19 17:30,509
6/5/19 17:30,514
6/5/19 17:30,506
6/5/19 17:30,511
6/5/19 17:30,510
6/5/19 17:30,507
6/5/19 17:30,510
6/5/19 17:30,506
6/5/19 17:30,509
6/5/19 17:30,498
6/5/19 17:30,499
6/5/19 17:30,497
6/5/19 17:30,505
6/5/19 17:30,515
6/5/19 17:30,514
6/5/19 17:30,513
6/5/19 17:30,514
6/5/19 17:30,507
6/5/19 17:30,511
6/5/19 17:30,508
6/5/19 17:30,506
6/5/19 17:30,590
6/5/19 17:30,598
6/5/19 17:30,517
6/5/19 17:30,485
6/5/19 17:30,490
6/5/19 17:30,492
6/5/19 17:30,485
6/5/19 17:30,493
6/5/19 17:30,484
6/5/19 17:30,484
6/5/19 17:30,493
6/5/19 17:30,492
6/5/19 17:30,501
6/5/19 17:30,499
6/5/19 17:30,502
6/5/19 17:30,502
6/5/19 17:30,494
6/5/19 17:30,490
6/5/19 17:30,498
6/5/19 17:30,502
6/5/19 17:30,507
6/5/19 17:30,502
6/5/19 17:30,508
6/5/19 17:30,505
6/5/19 17:30,507
6/5/19 17:30,506
6/5/19 17:30,506
6/5/19 17:30,510
6/5/19 17:30,505
6/5/19 17:30,499
6/5/19 17:30,507
6/5/19 17:30,510
6/5/19 17:30,516
6/5/19 17:30,495
6/5/19 17:30,511
6/5/19 17:30,518
6/5/19 17:30,516
6/5/19 17:30,522
6/5/19 17:30,516
6/5/19 17:30,518
6/5/19 17:30,517
6/5/19 17:30,513
6/5/19 17:30,515
6/5/19 17:30,511
6/5/19 17:30,514
6/5/19 17:30,513
6/5/19 17:30,510
6/5/19 17:30,513
6/5/19 17:30,509
6/5/19 17:30,513
6/5/19 17:30,511
6/5/19 17:30,510
6/5/19 17:30,512
6/5/19 17:30,508
6/5/19 17:30,498
6/5/19 17:30,510
6/5/19 17:30,504
6/5/19 17:30,503
6/5/19 17:30,509
6/5/19 17:30,515
6/5/19 17:30,513
6/5/19 17:30,513
6/5/19 17:30,514
6/5/19 17:30,509
6/5/19 17:30,510
6/5/19 17:30,508
6/5/19 17:30,506
6/5/19 17:30,508
6/5/19 17:30,503
6/5/19 17:30,509
6/5/19 17:30,493
6/5/19 17:30,504
6/5/19 17:30,510
6/5/19 17:30,508
6/5/19 17:30,564
6/5/19 17:30,588
6/5/19 17:30,540
6/5/19 17:30,489
6/5/19 17:30,491
6/5/19 17:30,498
6/5/19 17:30,487
6/5/19 17:30,491
6/5/19 17:30,494
6/5/19 17:30,492
6/5/19 17:30,497
6/5/19 17:30,496
6/5/19 17:30,500
6/5/19 17:30,500
6/5/19 17:30,498
6/5/19 17:30,502
6/5/19 17:30,495
6/5/19 17:30,481
6/5/19 17:30,490
6/5/19 17:30,502
6/5/19 17:30,509
6/5/19 17:30,506
6/5/19 17:30,507
6/5/19 17:30,507
6/5/19 17:30,505
6/5/19 17:30,509
6/5/19 17:30,506
6/5/19 17:30,491
6/5/19 17:30,507
6/5/19 17:30,509
6/5/19 17:30,516
6/5/19 17:30,510
6/5/19 17:30,515
6/5/19 17:30,514
6/5/19 17:30,513
6/5/19 17:30,516
6/5/19 17:30,510
6/5/19 17:30,515
6/5/19 17:30,510
6/5/19 17:30,509
6/5/19 17:30,514
6/5/19 17:30,510
6/5/19 17:30,512
6/5/19 17:30,510
6/5/19 17:30,508
6/5/19 17:30,513
6/5/19 17:30,508
6/5/19 17:30,511
6/5/19 17:30,513
6/5/19 17:30,509
6/5/19 17:30,515
6/5/19 17:30,510
6/5/19 17:30,515
6/5/19 17:30,513
6/5/19 17:30,510
6/5/19 17:30,501
6/5/19 17:30,497
6/5/19 17:30,514
6/5/19 17:30,514
6/5/19 17:30,516
6/5/19 17:30,516
6/5/19 17:30,512
6/5/19 17:30,513
6/5/19 17:30,509
6/5/19 17:30,509
6/5/19 17:30,508
6/5/19 17:30,506
6/5/19 17:30,510
6/5/19 17:30,504
6/5/19 17:30,508
6/5/19 17:30,508
6/5/19 17:30,504
6/5/19 17:30,508
6/5/19 17:30,583
6/5/19 17:30,600
6/5/19 17:30,532
6/5/19 17:30,483
6/5/19 17:30,488
6/5/19 17:30,485
6/5/19 17:30,488
6/5/19 17:30,486
6/5/19 17:30,486
6/5/19 17:30,491
6/5/19 17:30,479
6/5/19 17:30,493
6/5/19 17:30,502
6/5/19 17:30,485
6/5/19 17:30,502
6/5/19 17:30,503
6/5/19 17:30,509
6/5/19 17:30,507
6/5/19 17:30,505
6/5/19 17:30,506
6/5/19 17:30,501
6/5/19 17:30,506
6/5/19 17:30,501
6/5/19 17:30,503
6/5/19 17:30,506
6/5/19 17:30,502
6/5/19 17:30,507
6/5/19 17:30,504
6/5/19 17:30,505
6/5/19 17:30,509
6/5/19 17:30,507
6/5/19 17:30,512
6/5/19 17:30,509
6/5/19 17:30,510
6/5/19 17:30,513
6/5/19 17:30,510
6/5/19 17:30,515
6/5/19 17:30,511
6/5/19 17:30,511
6/5/19 17:30,503
6/5/19 17:30,505
6/5/19 17:30,507
6/5/19 17:30,514
6/5/19 17:30,519
6/5/19 17:30,521
6/5/19 17:30,516
6/5/19 17:30,520
6/5/19 17:30,515
6/5/19 17:30,514
6/5/19 17:30,515
6/5/19 17:30,511
6/5/19 17:30,517
6/5/19 17:30,513
6/5/19 17:30,512
6/5/19 17:30,512
6/5/19 17:30,508
6/5/19 17:30,513
6/5/19 17:30,507
6/5/19 17:30,507
6/5/19 17:30,507
6/5/19 17:30,505
6/5/19 17:30,508
6/5/19 17:30,505
6/5/19 17:30,505
6/5/19 17:30,507
6/5/19 17:30,505
6/5/19 17:30,496
6/5/19 17:30,487
6/5/19 17:30,503
6/5/19 17:30,514
6/5/19 17:30,513
6/5/19 17:30,516
6/5/19 17:30,513
6/5/19 17:30,514
6/5/19 17:30,589
6/5/19 17:30,602
6/5/19 17:30,533
6/5/19 17:30,483
6/5/19 17:30,489
6/5/19 17:30,489
6/5/19 17:30,481
6/5/19 17:30,484
6/5/19 17:30,486
6/5/19 17:30,492
6/5/19 17:30,496
6/5/19 17:30,497
6/5/19 17:30,501
6/5/19 17:30,499
6/5/19 17:30,501
6/5/19 17:30,501
6/5/19 17:30,498
6/5/19 17:30,499
6/5/19 17:30,496
6/5/19 17:30,500
6/5/19 17:30,500
6/5/19 17:39,511
6/5/19 17:39,509
6/5/19 17:39,515
6/5/19 17:39,512
6/5/19 17:39,514
6/5/19 17:39,511
6/5/19 17:39,510
6/5/19 17:39,510
6/5/19 17:39,506
6/5/19 17:39,488
6/5/19 17:39,492
6/5/19 17:39,519
6/5/19 17:39,521
6/5/19 17:39,497
6/5/19 17:39,506
6/5/19 17:39,527
6/5/19 17:39,499
6/5/19 17:39,521
6/5/19 17:39,527
6/5/19 17:39,505
6/5/19 17:39,495
6/5/19 17:39,483
6/5/19 17:39,495
6/5/19 17:39,534
6/5/19 17:39,502
6/5/19 17:39,528
6/5/19 17:39,539
6/5/19 17:39,522
6/5/19 17:39,524
6/5/19 17:39,533
6/5/19 17:39,489
6/5/19 17:39,486
6/5/19 17:39,522
6/5/19 17:39,484
6/5/19 17:39,501
6/5/19 17:39,509
6/5/19 17:39,489
6/5/19 17:39,486
6/5/19 17:39,529
6/5/19 17:39,541
6/5/19 17:39,536
6/5/19 17:39,534
6/5/19 17:39,529
6/5/19 17:39,522
6/5/19 17:39,492
6/5/19 17:39,492
6/5/19 17:39,587
6/5/19 17:39,605
6/5/19 17:39,463
6/5/19 17:39,488
6/5/19 17:39,502
6/5/19 17:39,513
6/5/19 17:39,503
6/5/19 17:39,496
6/5/19 17:39,478
6/5/19 17:39,450
6/5/19 17:39,486
6/5/19 17:39,462
6/5/19 17:39,467
6/5/19 17:39,513
6/5/19 17:39,518
6/5/19 17:39,524
6/5/19 17:39,518
6/5/19 17:39,454
6/5/19 17:39,431
6/5/19 17:39,453
6/5/19 17:39,482
6/5/19 17:39,539
6/5/19 17:39,448
6/5/19 17:39,535
6/5/19 17:39,447
6/5/19 17:39,531
6/5/19 17:39,551
6/5/19 17:39,555
6/5/19 17:39,509
6/5/19 17:39,518
6/5/19 17:39,557
6/5/19 17:39,554
6/5/19 17:39,528
6/5/19 17:39,482
6/5/19 17:39,540
6/5/19 17:39,491
6/5/19 17:39,513
6/5/19 17:39,514
6/5/19 17:39,508
6/5/19 17:39,536
6/5/19 17:39,540
6/5/19 17:39,535
6/5/19 17:39,534
6/5/19 17:39,528
6/5/19 17:39,520
6/5/19 17:39,475
6/5/19 17:39,508
6/5/19 17:39,516
6/5/19 17:39,516
6/5/19 17:39,497
6/5/19 17:39,521
6/5/19 17:39,518
6/5/19 17:39,516
6/5/19 17:39,511
6/5/19 17:39,502
6/5/19 17:39,502
6/5/19 17:39,443
6/5/19 17:39,491
6/5/19 17:39,484
6/5/19 17:39,516
6/5/19 17:39,525
6/5/19 17:39,518
6/5/19 17:39,475
6/5/19 17:39,449
6/5/19 17:39,518
6/5/19 17:39,529
6/5/19 17:39,530
6/5/19 17:39,527
6/5/19 17:39,517
6/5/19 17:39,509
6/5/19 17:39,506
6/5/19 17:39,520
6/5/19 17:39,585
6/5/19 17:39,573
6/5/19 17:39,462
6/5/19 17:39,431
6/5/19 17:39,485
6/5/19 17:39,510
6/5/19 17:39,498
6/5/19 17:39,499
6/5/19 17:39,518
6/5/19 17:39,506
6/5/19 17:39,491
6/5/19 17:39,473
6/5/19 17:39,505
6/5/19 17:39,515
6/5/19 17:39,511
6/5/19 17:39,515
6/5/19 17:39,507
6/5/19 17:39,468
6/5/19 17:39,505
6/5/19 17:39,469
6/5/19 17:39,492
6/5/19 17:39,514
6/5/19 17:39,519
6/5/19 17:39,514
6/5/19 17:39,510
6/5/19 17:39,478
6/5/19 17:39,514
6/5/19 17:39,516
6/5/19 17:39,484
6/5/19 17:39,465
6/5/19 17:39,518
6/5/19 17:39,533
6/5/19 17:39,537
6/5/19 17:39,531
6/5/19 17:39,522
6/5/19 17:39,520
6/5/19 17:39,509
6/5/19 17:39,508
6/5/19 17:39,506
6/5/19 17:39,467
6/5/19 17:39,509
6/5/19 17:39,481
6/5/19 17:39,528
6/5/19 17:39,533
6/5/19 17:39,528
6/5/19 17:39,526
6/5/19 17:39,516
6/5/19 17:39,518
6/5/19 17:39,512
6/5/19 17:39,508
6/5/19 17:39,510
6/5/19 17:39,505
6/5/19 17:39,466
6/5/19 17:39,481
6/5/19 17:39,513
6/5/19 17:39,533
6/5/19 17:39,530
6/5/19 17:39,532
6/5/19 17:39,523
6/5/19 17:39,517
6/5/19 17:39,515
6/5/19 17:39,506
6/5/19 17:39,474
6/5/19 17:39,501
6/5/19 17:39,485
6/5/19 17:39,520
6/5/19 17:39,522
6/5/19 17:39,524
6/5/19 17:39,518
6/5/19 17:39,515
6/5/19 17:39,514
6/5/19 17:39,505
6/5/19 17:39,482
6/5/19 17:39,502
6/5/19 17:39,520
6/5/19 17:39,594
6/5/19 17:39,584
6/5/19 17:39,475
6/5/19 17:39,486
6/5/19 17:39,499
6/5/19 17:39,501
6/5/19 17:39,494
6/5/19 17:39,493
6/5/19 17:39,490
6/5/19 17:39,494
6/5/19 17:39,495
6/5/19 17:39,472
6/5/19 17:39,509
6/5/19 17:39,509
6/5/19 17:39,474
6/5/19 17:39,508
6/5/19 17:39,512
6/5/19 17:39,515
6/5/19 17:39,507
6/5/19 17:39,507
6/5/19 17:39,506
6/5/19 17:39,500
6/5/19 17:39,480
6/5/19 17:39,499
6/5/19 17:39,470
6/5/19 17:39,504
6/5/19 17:39,517
6/5/19 17:39,524
6/5/19 17:39,517
6/5/19 17:39,518
6/5/19 17:39,514
6/5/19 17:39,511
6/5/19 17:39,513
6/5/19 17:39,508
6/5/19 17:39,512
6/5/19 17:39,507
6/5/19 17:39,505
6/5/19 17:39,510
6/5/19 17:39,508
6/5/19 17:39,509
6/5/19 17:39,474
6/5/19 17:39,496
6/5/19 17:39,494
6/5/19 17:39,520
6/5/19 17:39,536
6/5/19 17:39,532
6/5/19 17:39,528
6/5/19 17:39,524
6/5/19 17:39,518
6/5/19 17:39,518
6/5/19 17:39,514
6/5/19 17:39,509
6/5/19 17:39,513
6/5/19 17:39,507
6/5/19 17:39,509
6/5/19 17:39,507
6/5/19 17:39,507
6/5/19 17:39,506
6/5/19 17:39,499
6/5/19 17:39,455
6/5/19 17:39,506
6/5/19 17:39,525
6/5/19 17:39,527
6/5/19 17:39,522
6/5/19 17:39,521
6/5/19 17:39,516
6/5/19 17:39,512
6/5/19 17:39,509
6/5/19 17:39,503
6/5/19 17:39,507
6/5/19 17:39,469
6/5/19 17:39,528
6/5/19 17:39,602
6/5/19 17:39,562
6/5/19 17:39,509
6/5/19 17:39,498
6/5/19 17:39,498
6/5/19 17:39,492
6/5/19 17:39,493
6/5/19 17:39,489
6/5/19 17:39,486
6/5/19 17:39,490
6/5/19 17:39,492
6/5/19 17:39,492
6/5/19 17:39,498
6/5/19 17:39,495
6/5/19 17:39,498
6/5/19 17:39,497
6/5/19 17:39,497
6/5/19 17:39,499
6/5/19 17:39,498
6/5/19 17:39,500
6/5/19 17:39,498
6/5/19 17:39,499
6/5/19 17:39,469
6/5/19 17:39,487
6/5/19 17:39,518
6/5/19 17:39,524
6/5/19 17:39,524
6/5/19 17:39,524
6/5/19 17:39,518
6/5/19 17:39,516
6/5/19 17:39,513
6/5/19 17:39,509
6/5/19 17:39,514
6/5/19 17:39,463
6/5/19 17:39,517
6/5/19 17:39,528
6/5/19 17:39,528
6/5/19 17:39,527
6/5/19 17:39,519
6/5/19 17:39,520
6/5/19 17:39,516
6/5/19 17:39,513
6/5/19 17:39,513
6/5/19 17:39,508
6/5/19 17:39,475
6/5/19 17:39,505
6/5/19 17:39,514
6/5/19 17:39,512
6/5/19 17:39,522
6/5/19 17:39,498
6/5/19 17:39,527
6/5/19 17:39,505
6/5/19 17:39,492
6/5/19 17:39,531
6/5/19 17:39,543
6/5/19 17:39,534
6/5/19 17:39,528
6/5/19 17:39,521
6/5/19 17:39,511
6/5/19 17:39,511
6/5/19 17:39,465
6/5/19 17:39,491
6/5/19 17:39,516
6/5/19 17:39,520
6/5/19 17:39,520
6/5/19 17:39,510
6/5/19 17:39,510
6/5/19 17:39,504
6/5/19 17:39,500
6/5/19 17:39,471
6/5/19 17:39,471
6/5/19 17:39,550
6/5/19 17:39,599
6/5/19 17:39,569
6/5/19 17:39,507
6/5/19 17:39,481
6/5/19 17:39,450
6/5/19 17:39,506
6/5/19 17:39,510
6/5/19 17:39,507
6/5/19 17:39,502
6/5/19 17:39,507
6/5/19 17:39,497
6/5/19 17:39,496
6/5/19 17:39,488
6/5/19 17:39,469
6/5/19 17:39,496
6/5/19 17:39,498
6/5/19 17:39,513
6/5/19 17:39,517
6/5/19 17:39,469
6/5/19 17:39,504
6/5/19 17:39,515
6/5/19 17:39,516
6/5/19 17:39,514
6/5/19 17:39,509
6/5/19 17:39,511
6/5/19 17:39,507
6/5/19 17:39,503
6/5/19 17:39,500
6/5/19 17:39,497
6/5/19 17:39,488
6/5/19 17:39,492
6/5/19 17:39,517
6/5/19 17:39,525
6/5/19 17:39,495
6/5/19 17:39,525
6/5/19 17:39,486
6/5/19 17:39,512
6/5/19 17:39,532
6/5/19 17:39,528
6/5/19 17:39,528
6/5/19 17:39,523
6/5/19 17:39,471
6/5/19 17:39,503
6/5/19 17:39,523
6/5/19 17:39,534
6/5/19 17:39,481
6/5/19 17:39,513
6/5/19 17:39,530
6/5/19 17:39,528
6/5/19 17:39,496
6/5/19 17:39,526
6/5/19 17:39,530
6/5/19 17:39,521
6/5/19 17:39,488
6/5/19 17:39,516
6/5/19 17:39,514
6/5/19 17:39,458
6/5/19 17:39,518
6/5/19 17:39,493
6/5/19 17:39,496
6/5/19 17:39,531
6/5/19 17:39,494
6/5/19 17:39,500
6/5/19 17:39,468
6/5/19 17:39,528
6/5/19 17:39,533
6/5/19 17:39,546
6/5/19 17:39,539
6/5/19 17:39,484
6/5/19 17:39,520
6/5/19 17:39,524
6/5/19 17:39,530
6/5/19 17:39,581
6/5/19 17:39,608
6/5/19 17:39,551
6/5/19 17:39,464
6/5/19 17:39,493
6/5/19 17:39,501
6/5/19 17:39,491
6/5/19 17:39,458
6/5/19 17:39,487
6/5/19 17:39,506
6/5/19 17:39,452
6/5/19 17:39,462
6/5/19 17:39,522
6/5/19 17:39,523
6/5/19 17:39,521
6/5/19 17:39,515
6/5/19 17:39,512
6/5/19 17:39,458
6/5/19 17:39,488
6/5/19 17:39,511
6/5/19 17:39,509
6/5/19 17:39,508
6/5/19 17:39,507
6/5/19 17:39,503
6/5/19 17:39,476
6/5/19 17:39,507
6/5/19 17:39,511
6/5/19 17:39,468
6/5/19 17:39,489
6/5/19 17:39,513
6/5/19 17:39,514
6/5/19 17:39,517
6/5/19 17:39,517
6/5/19 17:39,513
6/5/19 17:39,517
6/5/19 17:39,509
6/5/19 17:39,511
6/5/19 17:39,507
6/5/19 17:39,505
6/5/19 17:39,509
6/5/19 17:39,504
6/5/19 17:39,438
6/5/19 17:39,512
6/5/19 17:39,530
6/5/19 17:39,534
6/5/19 17:39,529
6/5/19 17:39,529
6/5/19 17:39,518
6/5/19 17:39,507
6/5/19 17:39,526
6/5/19 17:39,474
6/5/19 17:39,509
6/5/19 17:39,507
6/5/19 17:39,528
6/5/19 17:39,540
6/5/19 17:39,530
6/5/19 17:39,520
6/5/19 17:39,484
6/5/19 17:39,479
6/5/19 17:39,526
6/5/19 17:39,531
6/5/19 17:39,526
6/5/19 17:39,480
6/5/19 17:39,512
6/5/19 17:39,522
6/5/19 17:39,518
6/5/19 17:39,519
6/5/19 17:39,514
6/5/19 17:39,507
6/5/19 17:39,476
6/5/19 17:39,461
6/5/19 17:39,500
6/5/19 17:39,536
6/5/19 17:39,603
6/5/19 17:39,590
6/5/19 17:39,501
6/5/19 17:39,493
6/5/19 17:39,490
6/5/19 17:39,441
6/5/19 17:39,482
6/5/19 17:39,500
6/5/19 17:39,506
6/5/19 17:39,505
6/5/19 17:39,504
6/5/19 17:39,504
6/5/19 17:39,476
6/5/19 17:39,508
6/5/19 17:39,507
6/5/19 17:39,504
6/5/19 17:39,504
6/5/19 17:39,500
6/5/19 17:39,501
6/5/19 17:39,497
6/5/19 17:39,446
6/5/19 17:39,481
6/5/19 17:39,515
6/5/19 17:39,523
6/5/19 17:39,521
6/5/19 17:39,520
6/5/19 17:39,516
6/5/19 17:39,510
6/5/19 17:39,513
6/5/19 17:39,506
6/5/19 17:39,506
6/5/19 17:39,433
6/5/19 17:39,504
6/5/19 17:39,530
6/5/19 17:39,531
6/5/19 17:39,531
6/5/19 17:39,526
6/5/19 17:39,521
6/5/19 17:39,519
6/5/19 17:39,514
6/5/19 17:39,513
6/5/19 17:39,502
6/5/19 17:39,501
6/5/19 17:39,505
6/5/19 17:39,493
6/5/19 17:39,523
6/5/19 17:39,528
6/5/19 17:39,526
6/5/19 17:39,522
6/5/19 17:39,518
6/5/19 17:39,518
6/5/19 17:39,515
6/5/19 17:39,513
6/5/19 17:39,513
6/5/19 17:39,506
6/5/19 17:39,510
6/5/19 17:39,505
6/5/19 17:39,503
6/5/19 17:39,474
6/5/19 17:39,486
6/5/19 17:39,519
6/5/19 17:39,523
6/5/19 17:39,526
6/5/19 17:39,524
6/5/19 17:39,515
6/5/19 17:39,517
6/5/19 17:39,509
6/5/19 17:39,507
6/5/19 17:39,507
6/5/19 17:39,503
6/5/19 17:39,506
6/5/19 17:39,582
6/5/19 17:39,593
6/5/19 17:39,517
6/5/19 17:39,439
6/5/19 17:39,479
6/5/19 17:39,474
6/5/19 17:39,508
6/5/19 17:39,516
6/5/19 17:39,502
6/5/19 17:39,505
6/5/19 17:39,491
6/5/19 17:39,493
6/5/19 17:39,483
6/5/19 17:39,493
6/5/19 17:39,517
6/5/19 17:39,518
6/5/19 17:39,517
6/5/19 17:39,513
6/5/19 17:39,506
6/5/19 17:39,485
6/5/19 17:39,496
6/5/19 17:39,507
6/5/19 17:39,501
6/5/19 17:39,476
6/5/19 17:39,507
6/5/19 17:39,511
6/5/19 17:39,513
6/5/19 17:39,512
6/5/19 17:39,508
6/5/19 17:39,511
6/5/19 17:39,507
6/5/19 17:39,507
6/5/19 17:39,507
6/5/19 17:39,505
6/5/19 17:39,507
6/5/19 17:39,504
6/5/19 17:39,511
6/5/19 17:39,509
6/5/19 17:39,508
6/5/19 17:39,512
6/5/19 17:39,509
6/5/19 17:39,510
6/5/19 17:39,456
6/5/19 17:39,516
6/5/19 17:39,532
6/5/19 17:39,531
6/5/19 17:39,531
6/5/19 17:48,507
6/5/19 17:48,508
6/5/19 17:48,509
6/5/19 17:48,507
6/5/19 17:48,505
6/5/19 17:48,507
6/5/19 17:48,505
6/5/19 17:48,505
6/5/19 17:48,506
6/5/19 17:48,505
6/5/19 17:48,509
6/5/19 17:48,504
6/5/19 17:48,505
6/5/19 17:48,520
6/5/19 17:48,589
6/5/19 17:48,586
6/5/19 17:48,494
6/5/19 17:48,484
6/5/19 17:48,473
6/5/19 17:48,490
6/5/19 17:48,491
6/5/19 17:48,483
6/5/19 17:48,493
6/5/19 17:48,490
6/5/19 17:48,484
6/5/19 17:48,500
6/5/19 17:48,501
6/5/19 17:48,507
6/5/19 17:48,505
6/5/19 17:48,503
6/5/19 17:48,505
6/5/19 17:48,498
6/5/19 17:48,502
6/5/19 17:48,501
6/5/19 17:48,501
6/5/19 17:48,503
6/5/19 17:48,499
6/5/19 17:48,503
6/5/19 17:48,503
6/5/19 17:48,503
6/5/19 17:48,507
6/5/19 17:48,504
6/5/19 17:48,507
6/5/19 17:48,488
6/5/19 17:48,502
6/5/19 17:48,515
6/5/19 17:48,515
6/5/19 17:48,504
6/5/19 17:48,515
6/5/19 17:48,519
6/5/19 17:48,522
6/5/19 17:48,517
6/5/19 17:48,521
6/5/19 17:48,516
6/5/19 17:48,516
6/5/19 17:48,516
6/5/19 17:48,510
6/5/19 17:48,514
6/5/19 17:48,511
6/5/19 17:48,511
6/5/19 17:48,512
6/5/19 17:48,510
6/5/19 17:48,514
6/5/19 17:48,508
6/5/19 17:48,508
6/5/19 17:48,507
6/5/19 17:48,510
6/5/19 17:48,518
6/5/19 17:48,493
6/5/19 17:48,509
6/5/19 17:48,517
6/5/19 17:48,513
6/5/19 17:48,516
6/5/19 17:48,511
6/5/19 17:48,512
6/5/19 17:48,511
6/5/19 17:48,507
6/5/19 17:48,511
6/5/19 17:48,505
6/5/19 17:48,507
6/5/19 17:48,507
6/5/19 17:48,504
6/5/19 17:48,508
6/5/19 17:48,504
6/5/19 17:48,507
6/5/19 17:48,506
6/5/19 17:48,504
6/5/19 17:48,493
6/5/19 17:48,548
6/5/19 17:48,600
6/5/19 17:48,561
6/5/19 17:48,494
6/5/19 17:48,495
6/5/19 17:48,490
6/5/19 17:48,495
6/5/19 17:48,487
6/5/19 17:48,488
6/5/19 17:48,491
6/5/19 17:48,488
6/5/19 17:48,476
6/5/19 17:48,490
6/5/19 17:48,499
6/5/19 17:48,507
6/5/19 17:48,503
6/5/19 17:48,506
6/5/19 17:48,503
6/5/19 17:48,502
6/5/19 17:48,504
6/5/19 17:48,499
6/5/19 17:48,503
6/5/19 17:48,489
6/5/19 17:48,478
6/5/19 17:48,500
6/5/19 17:48,507
6/5/19 17:48,517
6/5/19 17:48,514
6/5/19 17:48,514
6/5/19 17:48,516
6/5/19 17:48,510
6/5/19 17:48,514
6/5/19 17:48,513
6/5/19 17:48,512
6/5/19 17:48,514
6/5/19 17:48,510
6/5/19 17:48,514
6/5/19 17:48,511
6/5/19 17:48,512
6/5/19 17:48,513
6/5/19 17:48,510
6/5/19 17:48,513
6/5/19 17:48,510
6/5/19 17:48,513
6/5/19 17:48,514
6/5/19 17:48,509
6/5/19 17:48,514
6/5/19 17:48,498
6/5/19 17:48,494
6/5/19 17:48,509
6/5/19 17:48,517
6/5/19 17:48,523
6/5/19 17:48,519
6/5/19 17:48,521
6/5/19 17:48,517
6/5/19 17:48,515
6/5/19 17:48,516
6/5/19 17:48,509
6/5/19 17:48,512
6/5/19 17:48,508
6/5/19 17:48,505
6/5/19 17:48,509
6/5/19 17:48,504
6/5/19 17:48,509
6/5/19 17:48,507
6/5/19 17:48,504
6/5/19 17:48,508
6/5/19 17:48,503
6/5/19 17:48,475
6/5/19 17:48,501
6/5/19 17:48,508
6/5/19 17:48,516
6/5/19 17:48,514
6/5/19 17:48,517
6/5/19 17:48,515
6/5/19 17:48,596
6/5/19 17:48,610
6/5/19 17:48,515
6/5/19 17:48,485
6/5/19 17:48,481
6/5/19 17:48,492
6/5/19 17:48,480
6/5/19 17:48,475
6/5/19 17:48,496
6/5/19 17:48,495
6/5/19 17:48,494
6/5/19 17:48,502
6/5/19 17:48,498
6/5/19 17:48,505
6/5/19 17:48,502
6/5/19 17:48,502
6/5/19 17:48,503
6/5/19 17:48,500
6/5/19 17:48,501
6/5/19 17:48,498
6/5/19 17:48,501
6/5/19 17:48,501
6/5/19 17:48,499
6/5/19 17:48,504
6/5/19 17:48,487
6/5/19 17:48,484
6/5/19 17:48,508
6/5/19 17:48,512
6/5/19 17:48,519
6/5/19 17:48,517
6/5/19 17:48,519
6/5/19 17:48,516
6/5/19 17:48,513
6/5/19 17:48,516
6/5/19 17:48,512
6/5/19 17:48,515
6/5/19 17:48,514
6/5/19 17:48,513
6/5/19 17:48,512
6/5/19 17:48,509
6/5/19 17:48,514
6/5/19 17:48,513
6/5/19 17:48,511
6/5/19 17:48,513
6/5/19 17:48,510
6/5/19 17:48,513
6/5/19 17:48,511
6/5/19 17:48,510
6/5/19 17:48,513
6/5/19 17:48,509
6/5/19 17:48,514
6/5/19 17:48,511
6/5/19 17:48,513
6/5/19 17:48,511
6/5/19 17:48,501
6/5/19 17:48,514
6/5/19 17:48,512
6/5/19 17:48,512
6/5/19 17:48,514
6/5/19 17:48,510
6/5/19 17:48,513
6/5/19 17:48,507
6/5/19 17:48,509
6/5/19 17:48,508
6/5/19 17:48,506
6/5/19 17:48,507
6/5/19 17:48,506
6/5/19 17:48,505
6/5/19 17:48,507
6/5/19 17:48,502
6/5/19 17:48,508
6/5/19 17:48,504
6/5/19 17:48,508
6/5/19 17:48,509
6/5/19 17:48,576
6/5/19 17:48,603
6/5/19 17:48,539
6/5/19 17:48,489
6/5/19 17:48,489
6/5/19 17:48,487
6/5/19 17:48,469
6/5/19 17:48,482
6/5/19 17:48,494
6/5/19 17:48,489
6/5/19 17:48,500
6/5/19 17:48,504
6/5/19 17:48,502
6/5/19 17:48,506
6/5/19 17:48,505
6/5/19 17:48,502
6/5/19 17:48,503
6/5/19 17:48,500
6/5/19 17:48,501
6/5/19 17:48,501
6/5/19 17:48,497
6/5/19 17:48,501
6/5/19 17:48,497
6/5/19 17:48,502
6/5/19 17:48,502
6/5/19 17:48,501
6/5/19 17:48,506
6/5/19 17:48,503
6/5/19 17:48,508
6/5/19 17:48,508
6/5/19 17:48,508
6/5/19 17:48,511
6/5/19 17:48,507
6/5/19 17:48,511
6/5/19 17:48,512
6/5/19 17:48,511
6/5/19 17:48,497
6/5/19 17:48,491
6/5/19 17:48,519
6/5/19 17:48,522
6/5/19 17:48,523
6/5/19 17:48,522
6/5/19 17:48,518
6/5/19 17:48,522
6/5/19 17:48,515
6/5/19 17:48,516
6/5/19 17:48,514
6/5/19 17:48,510
6/5/19 17:48,514
6/5/19 17:48,511
6/5/19 17:48,512
6/5/19 17:48,512
6/5/19 17:48,509
6/5/19 17:48,513
6/5/19 17:48,509
6/5/19 17:48,510
6/5/19 17:48,511
6/5/19 17:48,506
6/5/19 17:48,510
6/5/19 17:48,506
6/5/19 17:48,507
6/5/19 17:48,507
6/5/19 17:48,503
6/5/19 17:48,508
6/5/19 17:48,504
6/5/19 17:48,510
6/5/19 17:48,489
6/5/19 17:48,496
6/5/19 17:48,510
6/5/19 17:48,511
6/5/19 17:48,514
6/5/19 17:48,514
6/5/19 17:48,510
6/5/19 17:48,513
6/5/19 17:48,595
6/5/19 17:48,610
6/5/19 17:48,518
6/5/19 17:48,482
6/5/19 17:48,490
6/5/19 17:48,489
6/5/19 17:48,490
6/5/19 17:48,489
6/5/19 17:48,484
6/5/19 17:48,488
6/5/19 17:48,488
6/5/19 17:48,487
6/5/19 17:48,497
6/5/19 17:48,501
6/5/19 17:48,504
6/5/19 17:48,487
6/5/19 17:48,505
6/5/19 17:48,509
6/5/19 17:48,507
6/5/19 17:48,507
6/5/19 17:48,504
6/5/19 17:48,506
6/5/19 17:48,503
6/5/19 17:48,504
6/5/19 17:48,499
6/5/19 17:48,497
6/5/19 17:48,507
6/5/19 17:48,507
6/5/19 17:48,510
6/5/19 17:48,511
6/5/19 17:48,508
6/5/19 17:48,513
6/5/19 17:48,509
6/5/19 17:48,510
6/5/19 17:48,513
6/5/19 17:48,509
6/5/19 17:48,515
6/5/19 17:48,511
6/5/19 17:48,509
6/5/19 17:48,498
6/5/19 17:48,509
6/5/19 17:48,519
6/5/19 17:48,516
6/5/19 17:48,520
6/5/19 17:48,518
6/5/19 17:48,515
6/5/19 17:48,517
6/5/19 17:48,511
6/5/19 17:48,514
6/5/19 17:48,513
6/5/19 17:48,509
6/5/19 17:48,515
6/5/19 17:48,511
6/5/19 17:48,515
6/5/19 17:48,513
6/5/19 17:48,509
6/5/19 17:48,512
6/5/19 17:48,507
6/5/19 17:48,508
6/5/19 17:48,497
6/5/19 17:48,502
6/5/19 17:48,512
6/5/19 17:48,507
6/5/19 17:48,512
6/5/19 17:48,509
6/5/19 17:48,508
6/5/19 17:48,510
6/5/19 17:48,503
6/5/19 17:48,509
6/5/19 17:48,507
6/5/19 17:48,489
6/5/19 17:48,503
6/5/19 17:48,506
6/5/19 17:48,513
6/5/19 17:48,512
6/5/19 17:48,575
6/5/19 17:48,610
6/5/19 17:48,543
6/5/19 17:48,491
6/5/19 17:48,489
6/5/19 17:48,489
6/5/19 17:48,484
6/5/19 17:48,483
6/5/19 17:48,489
6/5/19 17:48,490
6/5/19 17:48,494
6/5/19 17:48,496
6/5/19 17:48,495
6/5/19 17:48,500
6/5/19 17:48,498
6/5/19 17:48,502
6/5/19 17:48,501
6/5/19 17:48,497
6/5/19 17:48,502
6/5/19 17:48,499
6/5/19 17:48,500
6/5/19 17:48,499
6/5/19 17:48,497
6/5/19 17:48,482
6/5/19 17:48,489
6/5/19 17:48,507
6/5/19 17:48,512
6/5/19 17:48,510
6/5/19 17:48,518
6/5/19 17:48,515
6/5/19 17:48,514
6/5/19 17:48,515
6/5/19 17:48,513
6/5/19 17:48,514
6/5/19 17:48,510
6/5/19 17:48,513
6/5/19 17:48,514
6/5/19 17:48,511
6/5/19 17:48,516
6/5/19 17:48,509
6/5/19 17:48,514
6/5/19 17:48,513
6/5/19 17:48,510
6/5/19 17:48,515
6/5/19 17:48,509
6/5/19 17:48,515
6/5/19 17:48,512
6/5/19 17:48,510
6/5/19 17:48,513
6/5/19 17:48,509
6/5/19 17:48,513
6/5/19 17:48,511
6/5/19 17:48,501
6/5/19 17:48,511
6/5/19 17:48,509
6/5/19 17:48,502
6/5/19 17:48,511
6/5/19 17:48,516
6/5/19 17:48,518
6/5/19 17:48,512
6/5/19 17:48,516
6/5/19 17:48,510
6/5/19 17:48,509
6/5/19 17:48,512
6/5/19 17:48,507
6/5/19 17:48,509
6/5/19 17:48,506
6/5/19 17:48,506
6/5/19 17:48,507
6/5/19 17:48,503
6/5/19 17:48,507
6/5/19 17:48,505
