X,Bin ECG
6/5/19 16:09,503
6/5/19 16:09,505
6/5/19 16:09,509
6/5/19 16:09,509
6/5/19 16:09,504
6/5/19 16:09,510
6/5/19 16:09,502
6/5/19 16:09,508
6/5/19 16:09,511
6/5/19 16:09,505
6/5/19 16:09,511
6/5/19 16:09,505
6/5/19 16:09,510
6/5/19 16:09,509
6/5/19 16:09,505
6/5/19 16:09,512
6/5/19 16:09,503
6/5/19 16:09,509
6/5/19 16:09,509
6/5/19 16:09,505
6/5/19 16:09,512
6/5/19 16:09,503
6/5/19 16:09,509
6/5/19 16:09,506
6/5/19 16:09,501
6/5/19 16:09,509
6/5/19 16:09,502
6/5/19 16:09,508
6/5/19 16:09,508
6/5/19 16:09,504
6/5/19 16:09,509
6/5/19 16:09,503
6/5/19 16:09,510
6/5/19 16:09,507
6/5/19 16:09,529
6/5/19 16:09,546
6/5/19 16:09,507
6/5/19 16:09,490
6/5/19 16:09,490
6/5/19 16:09,493
6/5/19 16:09,503
6/5/19 16:09,499
6/5/19 16:09,505
6/5/19 16:09,504
6/5/19 16:09,501
6/5/19 16:09,501
6/5/19 16:09,496
6/5/19 16:09,503
6/5/19 16:09,503
6/5/19 16:09,504
6/5/19 16:09,510
6/5/19 16:09,503
6/5/19 16:09,509
6/5/19 16:09,507
6/5/19 16:09,506
6/5/19 16:09,511
6/5/19 16:09,505
6/5/19 16:09,512
6/5/19 16:09,508
6/5/19 16:09,504
6/5/19 16:09,511
6/5/19 16:09,506
6/5/19 16:09,514
6/5/19 16:09,509
6/5/19 16:09,510
6/5/19 16:09,514
6/5/19 16:09,504
6/5/19 16:09,511
6/5/19 16:09,506
6/5/19 16:09,507
6/5/19 16:09,513
6/5/19 16:09,506
6/5/19 16:09,511
6/5/19 16:09,505
6/5/19 16:09,508
6/5/19 16:09,509
6/5/19 16:09,502
6/5/19 16:09,511
6/5/19 16:09,504
6/5/19 16:09,508
6/5/19 16:09,510
6/5/19 16:09,503
6/5/19 16:09,511
6/5/19 16:09,503
6/5/19 16:09,506
6/5/19 16:09,509
6/5/19 16:09,502
6/5/19 16:09,510
6/5/19 16:09,504
6/5/19 16:09,506
6/5/19 16:09,509
6/5/19 16:09,503
6/5/19 16:09,512
6/5/19 16:09,503
6/5/19 16:09,508
6/5/19 16:09,507
6/5/19 16:09,502
6/5/19 16:09,510
6/5/19 16:09,502
6/5/19 16:09,508
6/5/19 16:09,507
6/5/19 16:09,505
6/5/19 16:09,515
6/5/19 16:09,544
6/5/19 16:09,536
6/5/19 16:09,493
6/5/19 16:09,484
6/5/19 16:09,499
6/5/19 16:09,496
6/5/19 16:09,502
6/5/19 16:09,501
6/5/19 16:09,501
6/5/19 16:09,509
6/5/19 16:09,498
6/5/19 16:09,501
6/5/19 16:09,500
6/5/19 16:09,500
6/5/19 16:09,508
6/5/19 16:09,501
6/5/19 16:09,509
6/5/19 16:09,509
6/5/19 16:09,505
6/5/19 16:09,511
6/5/19 16:09,505
6/5/19 16:09,511
6/5/19 16:09,508
6/5/19 16:09,506
6/5/19 16:09,514
6/5/19 16:09,505
6/5/19 16:09,512
6/5/19 16:09,509
6/5/19 16:09,503
6/5/19 16:09,509
6/5/19 16:09,506
6/5/19 16:09,513
6/5/19 16:09,509
6/5/19 16:09,506
6/5/19 16:09,514
6/5/19 16:09,506
6/5/19 16:09,513
6/5/19 16:09,507
6/5/19 16:09,506
6/5/19 16:09,512
6/5/19 16:09,503
6/5/19 16:09,510
6/5/19 16:09,507
6/5/19 16:09,506
6/5/19 16:09,511
6/5/19 16:09,503
6/5/19 16:09,509
6/5/19 16:09,505
6/5/19 16:09,506
6/5/19 16:09,511
6/5/19 16:09,504
6/5/19 16:09,512
6/5/19 16:09,504
6/5/19 16:09,507
6/5/19 16:09,509
6/5/19 16:09,503
6/5/19 16:09,508
6/5/19 16:09,504
6/5/19 16:09,505
6/5/19 16:09,509
6/5/19 16:09,502
6/5/19 16:09,510
6/5/19 16:09,503
6/5/19 16:09,505
6/5/19 16:09,510
6/5/19 16:09,503
6/5/19 16:09,510
6/5/19 16:09,510
6/5/19 16:09,545
6/5/19 16:09,532
6/5/19 16:09,487
6/5/19 16:09,491
6/5/19 16:09,491
6/5/19 16:09,500
6/5/19 16:09,506
6/5/19 16:09,499
6/5/19 16:09,509
6/5/19 16:09,502
6/5/19 16:09,502
6/5/19 16:09,503
6/5/19 16:09,496
6/5/19 16:09,506
6/5/19 16:09,499
6/5/19 16:09,504
6/5/19 16:09,507
6/5/19 16:09,504
6/5/19 16:09,511
6/5/19 16:09,503
6/5/19 16:09,509
6/5/19 16:09,513
6/5/19 16:09,507
6/5/19 16:09,513
6/5/19 16:09,506
6/5/19 16:09,510
6/5/19 16:09,510
6/5/19 16:09,506
6/5/19 16:09,514
6/5/19 16:09,506
6/5/19 16:09,509
6/5/19 16:09,509
6/5/19 16:09,506
6/5/19 16:09,513
6/5/19 16:09,506
6/5/19 16:09,511
6/5/19 16:09,509
6/5/19 16:09,505
6/5/19 16:09,510
6/5/19 16:09,505
6/5/19 16:09,510
6/5/19 16:09,507
6/5/19 16:09,504
6/5/19 16:09,510
6/5/19 16:09,504
6/5/19 16:09,509
6/5/19 16:09,508
6/5/19 16:09,506
6/5/19 16:09,511
6/5/19 16:09,505
6/5/19 16:09,510
6/5/19 16:09,506
6/5/19 16:09,505
6/5/19 16:09,511
6/5/19 16:09,504
6/5/19 16:09,511
6/5/19 16:09,502
6/5/19 16:09,503
6/5/19 16:09,511
6/5/19 16:09,502
6/5/19 16:09,508
6/5/19 16:09,505
6/5/19 16:09,502
6/5/19 16:09,511
6/5/19 16:09,501
6/5/19 16:09,508
6/5/19 16:09,507
6/5/19 16:09,508
6/5/19 16:09,548
6/5/19 16:09,532
6/5/19 16:09,498
6/5/19 16:09,487
6/5/19 16:09,493
6/5/19 16:09,501
6/5/19 16:09,499
6/5/19 16:09,507
6/5/19 16:09,499
6/5/19 16:09,500
6/5/19 16:09,506
6/5/19 16:09,498
6/5/19 16:09,504
6/5/19 16:09,500
6/5/19 16:09,503
6/5/19 16:09,507
6/5/19 16:09,503
6/5/19 16:09,512
6/5/19 16:09,504
6/5/19 16:09,507
6/5/19 16:09,510
6/5/19 16:09,507
6/5/19 16:09,514
6/5/19 16:09,507
6/5/19 16:09,509
6/5/19 16:09,511
6/5/19 16:09,507
6/5/19 16:09,513
6/5/19 16:09,507
6/5/19 16:09,509
6/5/19 16:09,508
6/5/19 16:09,505
6/5/19 16:09,514
6/5/19 16:09,507
6/5/19 16:09,509
6/5/19 16:09,512
6/5/19 16:09,505
6/5/19 16:09,513
6/5/19 16:09,504
6/5/19 16:09,509
6/5/19 16:09,509
6/5/19 16:09,503
6/5/19 16:09,512
6/5/19 16:09,503
6/5/19 16:09,510
6/5/19 16:09,510
6/5/19 16:09,505
6/5/19 16:09,511
6/5/19 16:09,504
6/5/19 16:09,509
6/5/19 16:09,508
6/5/19 16:09,504
6/5/19 16:09,511
6/5/19 16:09,503
6/5/19 16:09,508
6/5/19 16:09,506
6/5/19 16:09,503
6/5/19 16:09,509
6/5/19 16:09,502
6/5/19 16:09,507
6/5/19 16:09,507
6/5/19 16:09,504
6/5/19 16:09,510
6/5/19 16:09,503
6/5/19 16:09,509
6/5/19 16:09,507
6/5/19 16:09,504
6/5/19 16:09,510
6/5/19 16:09,542
6/5/19 16:09,541
6/5/19 16:09,495
6/5/19 16:09,485
6/5/19 16:09,499
6/5/19 16:09,498
6/5/19 16:09,503
6/5/19 16:09,502
6/5/19 16:09,501
6/5/19 16:09,505
6/5/19 16:09,496
6/5/19 16:09,504
6/5/19 16:09,500
6/5/19 16:09,500
6/5/19 16:09,507
6/5/19 16:09,503
6/5/19 16:09,509
6/5/19 16:09,507
6/5/19 16:09,505
6/5/19 16:09,510
6/5/19 16:09,503
6/5/19 16:09,513
6/5/19 16:09,506
6/5/19 16:09,508
6/5/19 16:09,511
6/5/19 16:09,505
6/5/19 16:09,514
6/5/19 16:09,507
6/5/19 16:09,508
6/5/19 16:09,513
6/5/19 16:09,505
6/5/19 16:09,513
6/5/19 16:09,504
6/5/19 16:09,507
6/5/19 16:09,512
6/5/19 16:09,505
6/5/19 16:09,513
6/5/19 16:09,505
6/5/19 16:09,509
6/5/19 16:09,511
6/5/19 16:09,503
6/5/19 16:09,513
6/5/19 16:09,504
6/5/19 16:09,507
6/5/19 16:09,510
6/5/19 16:09,504
6/5/19 16:09,511
6/5/19 16:09,504
6/5/19 16:09,507
6/5/19 16:09,510
6/5/19 16:09,503
6/5/19 16:09,512
6/5/19 16:09,503
6/5/19 16:09,508
6/5/19 16:09,509
6/5/19 16:09,502
6/5/19 16:09,510
6/5/19 16:09,502
6/5/19 16:09,507
6/5/19 16:09,508
6/5/19 16:09,504
6/5/19 16:09,507
6/5/19 16:09,499
6/5/19 16:09,511
6/5/19 16:09,507
6/5/19 16:09,503
6/5/19 16:09,510
6/5/19 16:09,507
6/5/19 16:09,548
6/5/19 16:09,538
6/5/19 16:09,493
6/5/19 16:09,492
6/5/19 16:09,490
6/5/19 16:09,499
6/5/19 16:09,498
6/5/19 16:09,498
6/5/19 16:09,508
6/5/19 16:09,498
6/5/19 16:09,504
6/5/19 16:09,507
6/5/19 16:09,508
6/5/19 16:09,512
6/5/19 16:09,501
6/5/19 16:09,506
6/5/19 16:09,504
6/5/19 16:09,502
6/5/19 16:09,509
6/5/19 16:09,502
6/5/19 16:09,508
6/5/19 16:09,506
6/5/19 16:09,506
6/5/19 16:09,513
6/5/19 16:09,505
6/5/19 16:09,513
6/5/19 16:09,508
6/5/19 16:09,506
6/5/19 16:09,513
6/5/19 16:09,505
6/5/19 16:09,511
6/5/19 16:09,508
6/5/19 16:09,506
6/5/19 16:09,513
6/5/19 16:09,505
6/5/19 16:09,510
6/5/19 16:09,507
6/5/19 16:09,506
6/5/19 16:09,509
6/5/19 16:09,504
6/5/19 16:09,511
6/5/19 16:09,505
6/5/19 16:09,508
6/5/19 16:09,511
6/5/19 16:09,504
6/5/19 16:09,511
6/5/19 16:09,505
6/5/19 16:09,505
6/5/19 16:09,510
6/5/19 16:09,500
6/5/19 16:09,509
6/5/19 16:09,504
6/5/19 16:09,499
6/5/19 16:09,511
6/5/19 16:09,506
6/5/19 16:09,511
6/5/19 16:09,507
6/5/19 16:09,507
6/5/19 16:09,508
6/5/19 16:09,502
6/5/19 16:09,510
6/5/19 16:09,503
6/5/19 16:09,504
6/5/19 16:09,510
6/5/19 16:09,503
6/5/19 16:09,511
6/5/19 16:09,510
6/5/19 16:09,542
6/5/19 16:09,531
6/5/19 16:09,489
6/5/19 16:09,491
6/5/19 16:09,490
6/5/19 16:09,503
6/5/19 16:09,506
6/5/19 16:09,504
6/5/19 16:09,513
6/5/19 16:09,503
6/5/19 16:09,503
6/5/19 16:09,502
6/5/19 16:09,496
6/5/19 16:09,503
6/5/19 16:09,498
6/5/19 16:09,504
6/5/19 16:09,504
6/5/19 16:09,502
6/5/19 16:09,510
6/5/19 16:09,503
6/5/19 16:09,506
6/5/19 16:09,507
6/5/19 16:09,504
6/5/19 16:09,514
6/5/19 16:09,506
6/5/19 16:09,510
6/5/19 16:09,510
6/5/19 16:09,507
6/5/19 16:09,513
6/5/19 16:09,507
6/5/19 16:09,512
6/5/19 16:09,510
6/5/19 16:09,507
6/5/19 16:09,513
6/5/19 16:09,505
6/5/19 16:09,509
6/5/19 16:09,508
6/5/19 16:09,506
6/5/19 16:09,510
6/5/19 16:09,503
6/5/19 16:09,510
6/5/19 16:09,510
6/5/19 16:09,507
6/5/19 16:09,512
6/5/19 16:09,503
6/5/19 16:09,509
6/5/19 16:09,507
6/5/19 16:09,505
6/5/19 16:09,510
6/5/19 16:09,504
6/5/19 16:09,509
6/5/19 16:09,508
6/5/19 16:09,505
6/5/19 16:09,506
6/5/19 16:09,504
6/5/19 16:09,511
6/5/19 16:09,506
6/5/19 16:09,505
6/5/19 16:09,509
6/5/19 16:09,502
6/5/19 16:09,509
6/5/19 16:09,503
6/5/19 16:09,505
6/5/19 16:09,507
6/5/19 16:09,503
6/5/19 16:09,510
6/5/19 16:09,506
6/5/19 16:09,506
6/5/19 16:09,509
6/5/19 16:09,519
6/5/19 16:09,547
6/5/19 16:09,513
6/5/19 16:09,488
6/5/19 16:09,493
6/5/19 16:09,490
6/5/19 16:09,506
6/5/19 16:09,500
6/5/19 16:09,502
6/5/19 16:09,505
6/5/19 16:09,497
6/5/19 16:09,504
6/5/19 16:09,499
6/5/19 16:09,501
6/5/19 16:09,504
6/5/19 16:09,502
6/5/19 16:09,510
6/5/19 16:09,504
6/5/19 16:09,507
6/5/19 16:09,510
6/5/19 16:09,504
6/5/19 16:09,512
6/5/19 16:09,505
6/5/19 16:09,510
6/5/19 16:09,510
6/5/19 16:09,505
6/5/19 16:09,514
6/5/19 16:09,507
6/5/19 16:09,512
6/5/19 16:09,509
6/5/19 16:09,506
6/5/19 16:09,515
6/5/19 16:09,506
6/5/19 16:09,507
6/5/19 16:09,508
6/5/19 16:09,506
6/5/19 16:09,514
6/5/19 16:09,505
6/5/19 16:09,511
6/5/19 16:09,510
6/5/19 16:09,505
6/5/19 16:09,512
6/5/19 16:09,505
6/5/19 16:09,510
6/5/19 16:09,508
6/5/19 16:09,503
6/5/19 16:09,512
6/5/19 16:09,504
6/5/19 16:09,509
6/5/19 16:09,507
6/5/19 16:09,503
6/5/19 16:09,510
6/5/19 16:09,503
6/5/19 16:09,509
6/5/19 16:09,508
6/5/19 16:09,504
6/5/19 16:09,510
6/5/19 16:09,500
6/5/19 16:09,509
6/5/19 16:09,504
6/5/19 16:09,504
6/5/19 16:09,509
6/5/19 16:09,505
6/5/19 16:09,510
6/5/19 16:09,506
6/5/19 16:09,505
6/5/19 16:09,509
6/5/19 16:09,502
6/5/19 16:09,550
6/5/19 16:09,542
6/5/19 16:09,496
6/5/19 16:09,489
6/5/19 16:09,488
6/5/19 16:09,503
6/5/19 16:09,502
6/5/19 16:09,502
6/5/19 16:09,508
6/5/19 16:09,498
6/5/19 16:09,503
6/5/19 16:09,499
6/5/19 16:09,499
6/5/19 16:09,505
6/5/19 16:09,499
6/5/19 16:09,509
6/5/19 16:09,503
6/5/19 16:09,506
6/5/19 16:09,511
6/5/19 16:09,503
6/5/19 16:09,511
6/5/19 16:18,503
6/5/19 16:18,506
6/5/19 16:18,502
6/5/19 16:18,510
6/5/19 16:18,501
6/5/19 16:18,510
6/5/19 16:18,510
6/5/19 16:18,501
6/5/19 16:18,515
6/5/19 16:18,502
6/5/19 16:18,510
6/5/19 16:18,508
6/5/19 16:18,500
6/5/19 16:18,515
6/5/19 16:18,505
6/5/19 16:18,513
6/5/19 16:18,511
6/5/19 16:18,506
6/5/19 16:18,516
6/5/19 16:18,503
6/5/19 16:18,513
6/5/19 16:18,510
6/5/19 16:18,505
6/5/19 16:18,511
6/5/19 16:18,503
6/5/19 16:18,513
6/5/19 16:18,509
6/5/19 16:18,503
6/5/19 16:18,515
6/5/19 16:18,502
6/5/19 16:18,510
6/5/19 16:18,506
6/5/19 16:18,505
6/5/19 16:18,511
6/5/19 16:18,501
6/5/19 16:18,511
6/5/19 16:18,507
6/5/19 16:18,506
6/5/19 16:18,511
6/5/19 16:18,498
6/5/19 16:18,513
6/5/19 16:18,507
6/5/19 16:18,499
6/5/19 16:18,510
6/5/19 16:18,503
6/5/19 16:18,512
6/5/19 16:18,505
6/5/19 16:18,505
6/5/19 16:18,510
6/5/19 16:18,501
6/5/19 16:18,511
6/5/19 16:18,503
6/5/19 16:18,504
6/5/19 16:18,511
6/5/19 16:18,501
6/5/19 16:18,514
6/5/19 16:18,505
6/5/19 16:18,538
6/5/19 16:18,544
6/5/19 16:18,498
6/5/19 16:18,492
6/5/19 16:18,491
6/5/19 16:18,499
6/5/19 16:18,505
6/5/19 16:18,498
6/5/19 16:18,508
6/5/19 16:18,494
6/5/19 16:18,498
6/5/19 16:18,507
6/5/19 16:18,499
6/5/19 16:18,510
6/5/19 16:18,501
6/5/19 16:18,506
6/5/19 16:18,511
6/5/19 16:18,500
6/5/19 16:18,513
6/5/19 16:18,504
6/5/19 16:18,503
6/5/19 16:18,511
6/5/19 16:18,502
6/5/19 16:18,515
6/5/19 16:18,504
6/5/19 16:18,510
6/5/19 16:18,513
6/5/19 16:18,506
6/5/19 16:18,516
6/5/19 16:18,505
6/5/19 16:18,509
6/5/19 16:18,511
6/5/19 16:18,504
6/5/19 16:18,515
6/5/19 16:18,504
6/5/19 16:18,510
6/5/19 16:18,511
6/5/19 16:18,503
6/5/19 16:18,513
6/5/19 16:18,502
6/5/19 16:18,510
6/5/19 16:18,509
6/5/19 16:18,503
6/5/19 16:18,514
6/5/19 16:18,503
6/5/19 16:18,509
6/5/19 16:18,509
6/5/19 16:18,504
6/5/19 16:18,514
6/5/19 16:18,500
6/5/19 16:18,507
6/5/19 16:18,506
6/5/19 16:18,504
6/5/19 16:18,512
6/5/19 16:18,499
6/5/19 16:18,510
6/5/19 16:18,508
6/5/19 16:18,504
6/5/19 16:18,512
6/5/19 16:18,501
6/5/19 16:18,510
6/5/19 16:18,505
6/5/19 16:18,505
6/5/19 16:18,511
6/5/19 16:18,502
6/5/19 16:18,510
6/5/19 16:18,505
6/5/19 16:18,504
6/5/19 16:18,514
6/5/19 16:18,501
6/5/19 16:18,513
6/5/19 16:18,543
6/5/19 16:18,536
6/5/19 16:18,506
6/5/19 16:18,480
6/5/19 16:18,499
6/5/19 16:18,497
6/5/19 16:18,497
6/5/19 16:18,503
6/5/19 16:18,495
6/5/19 16:18,506
6/5/19 16:18,496
6/5/19 16:18,504
6/5/19 16:18,511
6/5/19 16:18,502
6/5/19 16:18,513
6/5/19 16:18,506
6/5/19 16:18,505
6/5/19 16:18,513
6/5/19 16:18,501
6/5/19 16:18,513
6/5/19 16:18,506
6/5/19 16:18,506
6/5/19 16:18,511
6/5/19 16:18,503
6/5/19 16:18,514
6/5/19 16:18,506
6/5/19 16:18,509
6/5/19 16:18,513
6/5/19 16:18,503
6/5/19 16:18,515
6/5/19 16:18,505
6/5/19 16:18,509
6/5/19 16:18,513
6/5/19 16:18,503
6/5/19 16:18,513
6/5/19 16:18,504
6/5/19 16:18,509
6/5/19 16:18,511
6/5/19 16:18,501
6/5/19 16:18,514
6/5/19 16:18,503
6/5/19 16:18,506
6/5/19 16:18,511
6/5/19 16:18,502
6/5/19 16:18,514
6/5/19 16:18,503
6/5/19 16:18,509
6/5/19 16:18,509
6/5/19 16:18,502
6/5/19 16:18,509
6/5/19 16:18,503
6/5/19 16:18,509
6/5/19 16:18,511
6/5/19 16:18,503
6/5/19 16:18,514
6/5/19 16:18,502
6/5/19 16:18,510
6/5/19 16:18,507
6/5/19 16:18,502
6/5/19 16:18,511
6/5/19 16:18,501
6/5/19 16:18,507
6/5/19 16:18,508
6/5/19 16:18,502
6/5/19 16:18,513
6/5/19 16:18,501
6/5/19 16:18,508
6/5/19 16:18,508
6/5/19 16:18,501
6/5/19 16:18,512
6/5/19 16:18,538
6/5/19 16:18,540
6/5/19 16:18,499
6/5/19 16:18,483
6/5/19 16:18,499
6/5/19 16:18,495
6/5/19 16:18,507
6/5/19 16:18,503
6/5/19 16:18,497
6/5/19 16:18,505
6/5/19 16:18,494
6/5/19 16:18,509
6/5/19 16:18,505
6/5/19 16:18,501
6/5/19 16:18,511
6/5/19 16:18,501
6/5/19 16:18,512
6/5/19 16:18,506
6/5/19 16:18,504
6/5/19 16:18,513
6/5/19 16:18,503
6/5/19 16:18,514
6/5/19 16:18,507
6/5/19 16:18,507
6/5/19 16:18,513
6/5/19 16:18,502
6/5/19 16:18,514
6/5/19 16:18,507
6/5/19 16:18,507
6/5/19 16:18,513
6/5/19 16:18,503
6/5/19 16:18,514
6/5/19 16:18,506
6/5/19 16:18,507
6/5/19 16:18,514
6/5/19 16:18,503
6/5/19 16:18,513
6/5/19 16:18,505
6/5/19 16:18,505
6/5/19 16:18,510
6/5/19 16:18,501
6/5/19 16:18,512
6/5/19 16:18,504
6/5/19 16:18,502
6/5/19 16:18,510
6/5/19 16:18,503
6/5/19 16:18,514
6/5/19 16:18,505
6/5/19 16:18,507
6/5/19 16:18,510
6/5/19 16:18,500
6/5/19 16:18,514
6/5/19 16:18,503
6/5/19 16:18,508
6/5/19 16:18,510
6/5/19 16:18,501
6/5/19 16:18,511
6/5/19 16:18,501
6/5/19 16:18,506
6/5/19 16:18,508
6/5/19 16:18,501
6/5/19 16:18,511
6/5/19 16:18,501
6/5/19 16:18,506
6/5/19 16:18,509
6/5/19 16:18,502
6/5/19 16:18,513
6/5/19 16:18,499
6/5/19 16:18,507
6/5/19 16:18,511
6/5/19 16:18,538
6/5/19 16:18,545
6/5/19 16:18,496
6/5/19 16:18,492
6/5/19 16:18,496
6/5/19 16:18,496
6/5/19 16:18,511
6/5/19 16:18,498
6/5/19 16:18,504
6/5/19 16:18,507
6/5/19 16:18,497
6/5/19 16:18,508
6/5/19 16:18,496
6/5/19 16:18,503
6/5/19 16:18,507
6/5/19 16:18,502
6/5/19 16:18,514
6/5/19 16:18,503
6/5/19 16:18,511
6/5/19 16:18,507
6/5/19 16:18,505
6/5/19 16:18,513
6/5/19 16:18,503
6/5/19 16:18,512
6/5/19 16:18,509
6/5/19 16:18,502
6/5/19 16:18,515
6/5/19 16:18,505
6/5/19 16:18,515
6/5/19 16:18,511
6/5/19 16:18,506
6/5/19 16:18,514
6/5/19 16:18,502
6/5/19 16:18,513
6/5/19 16:18,508
6/5/19 16:18,505
6/5/19 16:18,514
6/5/19 16:18,501
6/5/19 16:18,513
6/5/19 16:18,507
6/5/19 16:18,504
6/5/19 16:18,511
6/5/19 16:18,502
6/5/19 16:18,512
6/5/19 16:18,504
6/5/19 16:18,505
6/5/19 16:18,510
6/5/19 16:18,501
6/5/19 16:18,512
6/5/19 16:18,505
6/5/19 16:18,501
6/5/19 16:18,511
6/5/19 16:18,504
6/5/19 16:18,513
6/5/19 16:18,505
6/5/19 16:18,505
6/5/19 16:18,511
6/5/19 16:18,501
6/5/19 16:18,511
6/5/19 16:18,503
6/5/19 16:18,504
6/5/19 16:18,513
6/5/19 16:18,500
6/5/19 16:18,511
6/5/19 16:18,503
6/5/19 16:18,505
6/5/19 16:18,510
6/5/19 16:18,502
6/5/19 16:18,512
6/5/19 16:18,503
6/5/19 16:18,517
6/5/19 16:18,539
6/5/19 16:18,513
6/5/19 16:18,496
6/5/19 16:18,485
6/5/19 16:18,498
6/5/19 16:18,504
6/5/19 16:18,497
6/5/19 16:18,509
6/5/19 16:18,501
6/5/19 16:18,502
6/5/19 16:18,504
6/5/19 16:18,498
6/5/19 16:18,508
6/5/19 16:18,497
6/5/19 16:18,509
6/5/19 16:18,505
6/5/19 16:18,502
6/5/19 16:18,515
6/5/19 16:18,505
6/5/19 16:18,508
6/5/19 16:18,512
6/5/19 16:18,504
6/5/19 16:18,515
6/5/19 16:18,504
6/5/19 16:18,511
6/5/19 16:18,510
6/5/19 16:18,506
6/5/19 16:18,515
6/5/19 16:18,503
6/5/19 16:18,510
6/5/19 16:18,510
6/5/19 16:18,505
6/5/19 16:18,516
6/5/19 16:18,504
6/5/19 16:18,510
6/5/19 16:18,510
6/5/19 16:18,505
6/5/19 16:18,514
6/5/19 16:18,501
6/5/19 16:18,509
6/5/19 16:18,509
6/5/19 16:18,503
6/5/19 16:18,514
6/5/19 16:18,501
6/5/19 16:18,510
6/5/19 16:18,502
6/5/19 16:18,503
6/5/19 16:18,514
6/5/19 16:18,502
6/5/19 16:18,514
6/5/19 16:18,509
6/5/19 16:18,504
6/5/19 16:18,512
6/5/19 16:18,501
6/5/19 16:18,511
6/5/19 16:18,506
6/5/19 16:18,504
6/5/19 16:18,510
6/5/19 16:18,501
6/5/19 16:18,510
6/5/19 16:18,505
6/5/19 16:18,503
6/5/19 16:18,511
6/5/19 16:18,502
6/5/19 16:18,510
6/5/19 16:18,503
6/5/19 16:18,504
6/5/19 16:18,510
6/5/19 16:18,503
6/5/19 16:18,522
6/5/19 16:18,536
6/5/19 16:18,517
6/5/19 16:18,495
6/5/19 16:18,484
6/5/19 16:18,503
6/5/19 16:18,498
6/5/19 16:18,501
6/5/19 16:18,504
6/5/19 16:18,494
6/5/19 16:18,507
6/5/19 16:18,500
6/5/19 16:18,505
6/5/19 16:18,510
6/5/19 16:18,497
6/5/19 16:18,512
6/5/19 16:18,504
6/5/19 16:18,509
6/5/19 16:18,511
6/5/19 16:18,502
6/5/19 16:18,513
6/5/19 16:18,505
6/5/19 16:18,507
6/5/19 16:18,512
6/5/19 16:18,502
6/5/19 16:18,514
6/5/19 16:18,506
6/5/19 16:18,509
6/5/19 16:18,512
6/5/19 16:18,504
6/5/19 16:18,517
6/5/19 16:18,505
6/5/19 16:18,508
6/5/19 16:18,513
6/5/19 16:18,504
6/5/19 16:18,514
6/5/19 16:18,503
6/5/19 16:18,509
6/5/19 16:18,510
6/5/19 16:18,504
6/5/19 16:18,511
6/5/19 16:18,503
6/5/19 16:18,510
6/5/19 16:18,509
6/5/19 16:18,503
6/5/19 16:18,512
6/5/19 16:18,502
6/5/19 16:18,509
6/5/19 16:18,511
6/5/19 16:18,499
6/5/19 16:18,513
6/5/19 16:18,502
6/5/19 16:18,510
6/5/19 16:18,509
6/5/19 16:18,503
6/5/19 16:18,514
6/5/19 16:18,501
6/5/19 16:18,509
6/5/19 16:18,506
6/5/19 16:18,502
6/5/19 16:18,512
6/5/19 16:18,501
6/5/19 16:18,510
6/5/19 16:18,508
6/5/19 16:18,503
6/5/19 16:18,513
6/5/19 16:18,499
6/5/19 16:18,510
6/5/19 16:18,507
6/5/19 16:18,503
6/5/19 16:18,512
6/5/19 16:18,512
6/5/19 16:18,543
6/5/19 16:18,516
6/5/19 16:18,488
6/5/19 16:18,493
6/5/19 16:18,490
6/5/19 16:18,507
6/5/19 16:18,502
6/5/19 16:18,498
6/5/19 16:18,506
6/5/19 16:18,499
6/5/19 16:18,506
6/5/19 16:18,500
6/5/19 16:18,501
6/5/19 16:18,509
6/5/19 16:18,500
6/5/19 16:18,513
6/5/19 16:18,505
6/5/19 16:18,503
6/5/19 16:18,512
6/5/19 16:18,502
6/5/19 16:18,512
6/5/19 16:18,504
6/5/19 16:18,507
6/5/19 16:18,514
6/5/19 16:18,503
6/5/19 16:18,516
6/5/19 16:18,507
6/5/19 16:18,508
6/5/19 16:18,514
6/5/19 16:18,504
6/5/19 16:18,515
6/5/19 16:18,506
6/5/19 16:18,507
6/5/19 16:18,512
6/5/19 16:18,502
6/5/19 16:18,515
6/5/19 16:18,505
6/5/19 16:18,507
6/5/19 16:18,512
6/5/19 16:18,502
6/5/19 16:18,512
6/5/19 16:18,504
6/5/19 16:18,506
6/5/19 16:18,510
6/5/19 16:18,502
6/5/19 16:18,513
6/5/19 16:18,502
6/5/19 16:18,508
6/5/19 16:18,510
6/5/19 16:18,501
6/5/19 16:18,514
6/5/19 16:18,499
6/5/19 16:18,507
6/5/19 16:18,510
6/5/19 16:18,502
6/5/19 16:18,513
6/5/19 16:18,501
6/5/19 16:18,509
6/5/19 16:18,507
6/5/19 16:18,501
6/5/19 16:18,513
6/5/19 16:18,501
6/5/19 16:18,507
6/5/19 16:18,509
6/5/19 16:18,502
6/5/19 16:18,514
6/5/19 16:18,502
6/5/19 16:18,507
6/5/19 16:18,508
6/5/19 16:18,502
6/5/19 16:18,548
6/5/19 16:18,534
6/5/19 16:18,501
6/5/19 16:18,486
6/5/19 16:18,489
6/5/19 16:18,506
6/5/19 16:18,497
6/5/19 16:18,501
6/5/19 16:18,501
6/5/19 16:18,498
6/5/19 16:18,510
6/5/19 16:18,499
6/5/19 16:18,509
6/5/19 16:18,508
6/5/19 16:18,503
6/5/19 16:18,509
6/5/19 16:18,502
6/5/19 16:18,511
6/5/19 16:18,507
6/5/19 16:18,503
6/5/19 16:18,515
6/5/19 16:18,501
6/5/19 16:18,512
6/5/19 16:18,507
6/5/19 16:18,505
6/5/19 16:18,513
6/5/19 16:18,503
6/5/19 16:18,512
6/5/19 16:18,508
6/5/19 16:18,507
6/5/19 16:18,514
6/5/19 16:18,504
6/5/19 16:18,511
6/5/19 16:18,508
6/5/19 16:18,506
6/5/19 16:18,512
6/5/19 16:18,501
6/5/19 16:18,513
6/5/19 16:18,505
6/5/19 16:18,505
6/5/19 16:18,512
6/5/19 16:18,501
6/5/19 16:18,511
6/5/19 16:18,505
6/5/19 16:18,506
6/5/19 16:18,510
6/5/19 16:18,501
6/5/19 16:18,514
6/5/19 16:18,506
6/5/19 16:18,507
6/5/19 16:27,510
6/5/19 16:27,511
6/5/19 16:27,503
6/5/19 16:27,510
6/5/19 16:27,505
6/5/19 16:27,504
6/5/19 16:27,510
6/5/19 16:27,502
6/5/19 16:27,509
6/5/19 16:27,503
6/5/19 16:27,504
6/5/19 16:27,510
6/5/19 16:27,505
6/5/19 16:27,509
6/5/19 16:27,504
6/5/19 16:27,505
6/5/19 16:27,510
6/5/19 16:27,504
6/5/19 16:27,509
6/5/19 16:27,518
6/5/19 16:27,539
6/5/19 16:27,517
6/5/19 16:27,483
6/5/19 16:27,489
6/5/19 16:27,494
6/5/19 16:27,501
6/5/19 16:27,503
6/5/19 16:27,502
6/5/19 16:27,506
6/5/19 16:27,503
6/5/19 16:27,506
6/5/19 16:27,506
6/5/19 16:27,500
6/5/19 16:27,509
6/5/19 16:27,504
6/5/19 16:27,506
6/5/19 16:27,508
6/5/19 16:27,504
6/5/19 16:27,513
6/5/19 16:27,504
6/5/19 16:27,510
6/5/19 16:27,509
6/5/19 16:27,504
6/5/19 16:27,511
6/5/19 16:27,505
6/5/19 16:27,508
6/5/19 16:27,511
6/5/19 16:27,507
6/5/19 16:27,513
6/5/19 16:27,505
6/5/19 16:27,511
6/5/19 16:27,511
6/5/19 16:27,507
6/5/19 16:27,513
6/5/19 16:27,505
6/5/19 16:27,508
6/5/19 16:27,509
6/5/19 16:27,505
6/5/19 16:27,512
6/5/19 16:27,503
6/5/19 16:27,509
6/5/19 16:27,507
6/5/19 16:27,505
6/5/19 16:27,510
6/5/19 16:27,502
6/5/19 16:27,510
6/5/19 16:27,507
6/5/19 16:27,503
6/5/19 16:27,511
6/5/19 16:27,504
6/5/19 16:27,508
6/5/19 16:27,509
6/5/19 16:27,505
6/5/19 16:27,511
6/5/19 16:27,506
6/5/19 16:27,510
6/5/19 16:27,506
6/5/19 16:27,504
6/5/19 16:27,509
6/5/19 16:27,503
6/5/19 16:27,511
6/5/19 16:27,506
6/5/19 16:27,504
6/5/19 16:27,511
6/5/19 16:27,503
6/5/19 16:27,508
6/5/19 16:27,505
6/5/19 16:27,506
6/5/19 16:27,510
6/5/19 16:27,505
6/5/19 16:27,547
6/5/19 16:27,532
6/5/19 16:27,487
6/5/19 16:27,487
6/5/19 16:27,492
6/5/19 16:27,504
6/5/19 16:27,502
6/5/19 16:27,501
6/5/19 16:27,509
6/5/19 16:27,499
6/5/19 16:27,505
6/5/19 16:27,503
6/5/19 16:27,503
6/5/19 16:27,509
6/5/19 16:27,504
6/5/19 16:27,510
6/5/19 16:27,505
6/5/19 16:27,505
6/5/19 16:27,510
6/5/19 16:27,501
6/5/19 16:27,510
6/5/19 16:27,506
6/5/19 16:27,508
6/5/19 16:27,511
6/5/19 16:27,503
6/5/19 16:27,510
6/5/19 16:27,506
6/5/19 16:27,508
6/5/19 16:27,513
6/5/19 16:27,507
6/5/19 16:27,514
6/5/19 16:27,506
6/5/19 16:27,509
6/5/19 16:27,510
6/5/19 16:27,506
6/5/19 16:27,512
6/5/19 16:27,505
6/5/19 16:27,509
6/5/19 16:27,509
6/5/19 16:27,504
6/5/19 16:27,506
6/5/19 16:27,504
6/5/19 16:27,508
6/5/19 16:27,508
6/5/19 16:27,505
6/5/19 16:27,512
6/5/19 16:27,506
6/5/19 16:27,508
6/5/19 16:27,509
6/5/19 16:27,504
6/5/19 16:27,512
6/5/19 16:27,504
6/5/19 16:27,507
6/5/19 16:27,508
6/5/19 16:27,503
6/5/19 16:27,511
6/5/19 16:27,502
6/5/19 16:27,508
6/5/19 16:27,506
6/5/19 16:27,503
6/5/19 16:27,509
6/5/19 16:27,503
6/5/19 16:27,507
6/5/19 16:27,507
6/5/19 16:27,503
6/5/19 16:27,509
6/5/19 16:27,503
6/5/19 16:27,509
6/5/19 16:27,507
6/5/19 16:27,506
6/5/19 16:27,548
6/5/19 16:27,528
6/5/19 16:27,493
6/5/19 16:27,486
6/5/19 16:27,493
6/5/19 16:27,504
6/5/19 16:27,500
6/5/19 16:27,504
6/5/19 16:27,505
6/5/19 16:27,502
6/5/19 16:27,505
6/5/19 16:27,498
6/5/19 16:27,506
6/5/19 16:27,505
6/5/19 16:27,503
6/5/19 16:27,511
6/5/19 16:27,504
6/5/19 16:27,509
6/5/19 16:27,507
6/5/19 16:27,505
6/5/19 16:27,511
6/5/19 16:27,504
6/5/19 16:27,510
6/5/19 16:27,508
6/5/19 16:27,506
6/5/19 16:27,514
6/5/19 16:27,505
6/5/19 16:27,511
6/5/19 16:27,507
6/5/19 16:27,508
6/5/19 16:27,512
6/5/19 16:27,503
6/5/19 16:27,511
6/5/19 16:27,507
6/5/19 16:27,509
6/5/19 16:27,511
6/5/19 16:27,506
6/5/19 16:27,513
6/5/19 16:27,505
6/5/19 16:27,507
6/5/19 16:27,509
6/5/19 16:27,503
6/5/19 16:27,511
6/5/19 16:27,506
6/5/19 16:27,509
6/5/19 16:27,510
6/5/19 16:27,503
6/5/19 16:27,511
6/5/19 16:27,504
6/5/19 16:27,505
6/5/19 16:27,505
6/5/19 16:27,503
6/5/19 16:27,513
6/5/19 16:27,506
6/5/19 16:27,509
6/5/19 16:27,509
6/5/19 16:27,504
6/5/19 16:27,510
6/5/19 16:27,501
6/5/19 16:27,505
6/5/19 16:27,508
6/5/19 16:27,502
6/5/19 16:27,510
6/5/19 16:27,505
6/5/19 16:27,506
6/5/19 16:27,508
6/5/19 16:27,502
6/5/19 16:27,511
6/5/19 16:27,504
6/5/19 16:27,509
6/5/19 16:27,542
6/5/19 16:27,537
6/5/19 16:27,500
6/5/19 16:27,482
6/5/19 16:27,493
6/5/19 16:27,495
6/5/19 16:27,499
6/5/19 16:27,506
6/5/19 16:27,502
6/5/19 16:27,514
6/5/19 16:27,519
6/5/19 16:27,506
6/5/19 16:27,503
6/5/19 16:27,498
6/5/19 16:27,503
6/5/19 16:27,503
6/5/19 16:27,500
6/5/19 16:27,508
6/5/19 16:27,501
6/5/19 16:27,508
6/5/19 16:27,506
6/5/19 16:27,506
6/5/19 16:27,510
6/5/19 16:27,505
6/5/19 16:27,511
6/5/19 16:27,508
6/5/19 16:27,506
6/5/19 16:27,512
6/5/19 16:27,504
6/5/19 16:27,510
6/5/19 16:27,509
6/5/19 16:27,509
6/5/19 16:27,515
6/5/19 16:27,506
6/5/19 16:27,514
6/5/19 16:27,509
6/5/19 16:27,506
6/5/19 16:27,512
6/5/19 16:27,505
6/5/19 16:27,509
6/5/19 16:27,506
6/5/19 16:27,506
6/5/19 16:27,510
6/5/19 16:27,504
6/5/19 16:27,511
6/5/19 16:27,505
6/5/19 16:27,505
6/5/19 16:27,512
6/5/19 16:27,504
6/5/19 16:27,509
6/5/19 16:27,505
6/5/19 16:27,506
6/5/19 16:27,510
6/5/19 16:27,497
6/5/19 16:27,514
6/5/19 16:27,505
6/5/19 16:27,508
6/5/19 16:27,508
6/5/19 16:27,502
6/5/19 16:27,511
6/5/19 16:27,503
6/5/19 16:27,508
6/5/19 16:27,510
6/5/19 16:27,502
6/5/19 16:27,510
6/5/19 16:27,504
6/5/19 16:27,507
6/5/19 16:27,508
6/5/19 16:27,532
6/5/19 16:27,538
6/5/19 16:27,493
6/5/19 16:27,487
6/5/19 16:27,497
6/5/19 16:27,498
6/5/19 16:27,509
6/5/19 16:27,500
6/5/19 16:27,509
6/5/19 16:27,508
6/5/19 16:27,499
6/5/19 16:27,506
6/5/19 16:27,501
6/5/19 16:27,499
6/5/19 16:27,505
6/5/19 16:27,503
6/5/19 16:27,510
6/5/19 16:27,503
6/5/19 16:27,507
6/5/19 16:27,507
6/5/19 16:27,506
6/5/19 16:27,513
6/5/19 16:27,504
6/5/19 16:27,510
6/5/19 16:27,510
6/5/19 16:27,506
6/5/19 16:27,514
6/5/19 16:27,505
6/5/19 16:27,510
6/5/19 16:27,510
6/5/19 16:27,506
6/5/19 16:27,511
6/5/19 16:27,505
6/5/19 16:27,510
6/5/19 16:27,510
6/5/19 16:27,505
6/5/19 16:27,512
6/5/19 16:27,505
6/5/19 16:27,508
6/5/19 16:27,507
6/5/19 16:27,505
6/5/19 16:27,509
6/5/19 16:27,502
6/5/19 16:27,511
6/5/19 16:27,506
6/5/19 16:27,505
6/5/19 16:27,513
6/5/19 16:27,503
6/5/19 16:27,511
6/5/19 16:27,508
6/5/19 16:27,505
6/5/19 16:27,510
6/5/19 16:27,502
6/5/19 16:27,502
6/5/19 16:27,507
6/5/19 16:27,507
6/5/19 16:27,511
6/5/19 16:27,503
6/5/19 16:27,507
6/5/19 16:27,505
6/5/19 16:27,505
6/5/19 16:27,510
6/5/19 16:27,503
6/5/19 16:27,511
6/5/19 16:27,505
6/5/19 16:27,504
6/5/19 16:27,508
6/5/19 16:27,503
6/5/19 16:27,509
6/5/19 16:27,505
6/5/19 16:27,507
6/5/19 16:27,514
6/5/19 16:27,540
6/5/19 16:27,526
6/5/19 16:27,485
6/5/19 16:27,485
6/5/19 16:27,500
6/5/19 16:27,496
6/5/19 16:27,501
6/5/19 16:27,498
6/5/19 16:27,503
6/5/19 16:27,507
6/5/19 16:27,499
6/5/19 16:27,508
6/5/19 16:27,503
6/5/19 16:27,506
6/5/19 16:27,509
6/5/19 16:27,503
6/5/19 16:27,511
6/5/19 16:27,504
6/5/19 16:27,507
6/5/19 16:27,509
6/5/19 16:27,503
6/5/19 16:27,511
6/5/19 16:27,506
6/5/19 16:27,508
6/5/19 16:27,509
6/5/19 16:27,505
6/5/19 16:27,513
6/5/19 16:27,508
6/5/19 16:27,510
6/5/19 16:27,509
6/5/19 16:27,504
6/5/19 16:27,516
6/5/19 16:27,507
6/5/19 16:27,512
6/5/19 16:27,510
6/5/19 16:27,506
6/5/19 16:27,510
6/5/19 16:27,504
6/5/19 16:27,509
6/5/19 16:27,508
6/5/19 16:27,503
6/5/19 16:27,510
6/5/19 16:27,504
6/5/19 16:27,510
6/5/19 16:27,507
6/5/19 16:27,505
6/5/19 16:27,511
6/5/19 16:27,504
6/5/19 16:27,509
6/5/19 16:27,507
6/5/19 16:27,504
6/5/19 16:27,510
6/5/19 16:27,502
6/5/19 16:27,508
6/5/19 16:27,506
6/5/19 16:27,504
6/5/19 16:27,510
6/5/19 16:27,501
6/5/19 16:27,507
6/5/19 16:27,505
6/5/19 16:27,502
6/5/19 16:27,510
6/5/19 16:27,502
6/5/19 16:27,509
6/5/19 16:27,506
6/5/19 16:27,506
6/5/19 16:27,510
6/5/19 16:27,503
6/5/19 16:27,508
6/5/19 16:27,516
6/5/19 16:27,539
6/5/19 16:27,521
6/5/19 16:27,484
6/5/19 16:27,488
6/5/19 16:27,495
6/5/19 16:27,502
6/5/19 16:27,506
6/5/19 16:27,494
6/5/19 16:27,505
6/5/19 16:27,501
6/5/19 16:27,502
6/5/19 16:27,505
6/5/19 16:27,504
6/5/19 16:27,513
6/5/19 16:27,507
6/5/19 16:27,508
6/5/19 16:27,510
6/5/19 16:27,504
6/5/19 16:27,513
6/5/19 16:27,505
6/5/19 16:27,506
6/5/19 16:27,510
6/5/19 16:27,503
6/5/19 16:27,509
6/5/19 16:27,506
6/5/19 16:27,506
6/5/19 16:27,510
6/5/19 16:27,505
6/5/19 16:27,515
6/5/19 16:27,507
6/5/19 16:27,509
6/5/19 16:27,512
6/5/19 16:27,505
6/5/19 16:27,511
6/5/19 16:27,505
6/5/19 16:27,509
6/5/19 16:27,512
6/5/19 16:27,504
6/5/19 16:27,511
6/5/19 16:27,504
6/5/19 16:27,508
6/5/19 16:27,509
6/5/19 16:27,502
6/5/19 16:27,511
6/5/19 16:27,505
6/5/19 16:27,508
6/5/19 16:27,509
6/5/19 16:27,503
6/5/19 16:27,511
6/5/19 16:27,505
6/5/19 16:27,507
6/5/19 16:27,508
6/5/19 16:27,503
6/5/19 16:27,510
6/5/19 16:27,503
6/5/19 16:27,508
6/5/19 16:27,509
6/5/19 16:27,502
6/5/19 16:27,508
6/5/19 16:27,501
6/5/19 16:27,507
6/5/19 16:27,506
6/5/19 16:27,505
6/5/19 16:27,510
6/5/19 16:27,503
6/5/19 16:27,507
6/5/19 16:27,507
6/5/19 16:27,504
6/5/19 16:27,510
6/5/19 16:27,507
6/5/19 16:27,547
6/5/19 16:27,538
6/5/19 16:27,492
6/5/19 16:27,488
6/5/19 16:27,487
6/5/19 16:27,502
6/5/19 16:27,504
6/5/19 16:27,502
6/5/19 16:27,504
6/5/19 16:27,500
6/5/19 16:27,507
6/5/19 16:27,505
6/5/19 16:27,505
6/5/19 16:27,509
6/5/19 16:27,503
6/5/19 16:27,510
6/5/19 16:27,506
6/5/19 16:27,506
6/5/19 16:27,510
6/5/19 16:27,505
6/5/19 16:27,510
6/5/19 16:27,506
6/5/19 16:27,507
6/5/19 16:27,511
6/5/19 16:27,504
6/5/19 16:27,512
6/5/19 16:27,507
6/5/19 16:27,507
6/5/19 16:27,512
6/5/19 16:27,504
6/5/19 16:27,514
6/5/19 16:27,507
6/5/19 16:27,508
6/5/19 16:27,511
6/5/19 16:27,506
6/5/19 16:27,512
6/5/19 16:27,506
6/5/19 16:27,507
6/5/19 16:27,509
6/5/19 16:27,503
6/5/19 16:27,511
6/5/19 16:27,505
6/5/19 16:27,506
6/5/19 16:27,510
6/5/19 16:27,504
6/5/19 16:27,511
6/5/19 16:27,507
6/5/19 16:27,506
6/5/19 16:27,508
6/5/19 16:27,503
6/5/19 16:27,510
6/5/19 16:27,504
6/5/19 16:27,506
6/5/19 16:27,510
6/5/19 16:27,504
6/5/19 16:27,509
6/5/19 16:27,500
6/5/19 16:27,506
6/5/19 16:27,509
6/5/19 16:27,503
6/5/19 16:27,513
6/5/19 16:27,505
6/5/19 16:27,508
6/5/19 16:27,509
6/5/19 16:27,503
6/5/19 16:27,511
6/5/19 16:27,503
6/5/19 16:27,508
6/5/19 16:27,508
6/5/19 16:27,503
6/5/19 16:27,528
6/5/19 16:27,536
6/5/19 16:27,508
6/5/19 16:27,489
6/5/19 16:27,484
6/5/19 16:27,502
6/5/19 16:27,499
6/5/19 16:27,503
6/5/19 16:27,501
6/5/19 16:27,503
6/5/19 16:27,507
6/5/19 16:27,498
6/5/19 16:27,505
6/5/19 16:27,506
6/5/19 16:27,503
6/5/19 16:27,512
6/5/19 16:27,505
6/5/19 16:27,507
6/5/19 16:27,506
6/5/19 16:27,505
6/5/19 16:36,509
6/5/19 16:36,510
6/5/19 16:36,504
6/5/19 16:36,507
6/5/19 16:36,506
6/5/19 16:36,503
6/5/19 16:36,511
6/5/19 16:36,503
6/5/19 16:36,508
6/5/19 16:36,506
6/5/19 16:36,505
6/5/19 16:36,509
6/5/19 16:36,503
6/5/19 16:36,509
6/5/19 16:36,507
6/5/19 16:36,533
6/5/19 16:36,537
6/5/19 16:36,496
6/5/19 16:36,486
6/5/19 16:36,494
6/5/19 16:36,498
6/5/19 16:36,507
6/5/19 16:36,496
6/5/19 16:36,502
6/5/19 16:36,503
6/5/19 16:36,506
6/5/19 16:36,507
6/5/19 16:36,504
6/5/19 16:36,509
6/5/19 16:36,508
6/5/19 16:36,507
6/5/19 16:36,509
6/5/19 16:36,504
6/5/19 16:36,510
6/5/19 16:36,501
6/5/19 16:36,507
6/5/19 16:36,510
6/5/19 16:36,504
6/5/19 16:36,511
6/5/19 16:36,508
6/5/19 16:36,510
6/5/19 16:36,510
6/5/19 16:36,506
6/5/19 16:36,511
6/5/19 16:36,506
6/5/19 16:36,509
6/5/19 16:36,510
6/5/19 16:36,508
6/5/19 16:36,511
6/5/19 16:36,506
6/5/19 16:36,507
6/5/19 16:36,509
6/5/19 16:36,506
6/5/19 16:36,510
6/5/19 16:36,507
6/5/19 16:36,508
6/5/19 16:36,508
6/5/19 16:36,504
6/5/19 16:36,511
6/5/19 16:36,505
6/5/19 16:36,506
6/5/19 16:36,509
6/5/19 16:36,505
6/5/19 16:36,510
6/5/19 16:36,502
6/5/19 16:36,510
6/5/19 16:36,509
6/5/19 16:36,503
6/5/19 16:36,511
6/5/19 16:36,502
6/5/19 16:36,508
6/5/19 16:36,503
6/5/19 16:36,504
6/5/19 16:36,508
6/5/19 16:36,506
6/5/19 16:36,510
6/5/19 16:36,508
6/5/19 16:36,505
6/5/19 16:36,508
6/5/19 16:36,504
6/5/19 16:36,508
6/5/19 16:36,507
6/5/19 16:36,505
6/5/19 16:36,510
6/5/19 16:36,504
6/5/19 16:36,508
6/5/19 16:36,507
6/5/19 16:36,505
6/5/19 16:36,547
6/5/19 16:36,534
6/5/19 16:36,492
6/5/19 16:36,486
6/5/19 16:36,492
6/5/19 16:36,501
6/5/19 16:36,506
6/5/19 16:36,512
6/5/19 16:36,507
6/5/19 16:36,503
6/5/19 16:36,506
6/5/19 16:36,501
6/5/19 16:36,506
6/5/19 16:36,503
6/5/19 16:36,505
6/5/19 16:36,507
6/5/19 16:36,500
6/5/19 16:36,507
6/5/19 16:36,504
6/5/19 16:36,506
6/5/19 16:36,508
6/5/19 16:36,503
6/5/19 16:36,509
6/5/19 16:36,505
6/5/19 16:36,506
6/5/19 16:36,509
6/5/19 16:36,507
6/5/19 16:36,508
6/5/19 16:36,507
6/5/19 16:36,510
6/5/19 16:36,514
6/5/19 16:36,506
6/5/19 16:36,512
6/5/19 16:36,507
6/5/19 16:36,508
6/5/19 16:36,510
6/5/19 16:36,506
6/5/19 16:36,514
6/5/19 16:36,507
6/5/19 16:36,507
6/5/19 16:36,508
6/5/19 16:36,504
6/5/19 16:36,510
6/5/19 16:36,505
6/5/19 16:36,507
6/5/19 16:36,509
6/5/19 16:36,505
6/5/19 16:36,510
6/5/19 16:36,505
6/5/19 16:36,508
6/5/19 16:36,509
6/5/19 16:36,503
6/5/19 16:36,509
6/5/19 16:36,504
6/5/19 16:36,508
6/5/19 16:36,507
6/5/19 16:36,504
6/5/19 16:36,510
6/5/19 16:36,504
6/5/19 16:36,505
6/5/19 16:36,506
6/5/19 16:36,503
6/5/19 16:36,510
6/5/19 16:36,503
6/5/19 16:36,508
6/5/19 16:36,506
6/5/19 16:36,504
6/5/19 16:36,511
6/5/19 16:36,503
6/5/19 16:36,508
6/5/19 16:36,505
6/5/19 16:36,510
6/5/19 16:36,546
6/5/19 16:36,518
6/5/19 16:36,491
6/5/19 16:36,486
6/5/19 16:36,497
6/5/19 16:36,507
6/5/19 16:36,499
6/5/19 16:36,504
6/5/19 16:36,504
6/5/19 16:36,503
6/5/19 16:36,513
6/5/19 16:36,503
6/5/19 16:36,506
6/5/19 16:36,502
6/5/19 16:36,502
6/5/19 16:36,509
6/5/19 16:36,501
6/5/19 16:36,510
6/5/19 16:36,506
6/5/19 16:36,506
6/5/19 16:36,510
6/5/19 16:36,504
6/5/19 16:36,510
6/5/19 16:36,507
6/5/19 16:36,508
6/5/19 16:36,512
6/5/19 16:36,505
6/5/19 16:36,510
6/5/19 16:36,507
6/5/19 16:36,509
6/5/19 16:36,514
6/5/19 16:36,503
6/5/19 16:36,511
6/5/19 16:36,508
6/5/19 16:36,509
6/5/19 16:36,510
6/5/19 16:36,504
6/5/19 16:36,511
6/5/19 16:36,508
6/5/19 16:36,507
6/5/19 16:36,508
6/5/19 16:36,502
6/5/19 16:36,510
6/5/19 16:36,504
6/5/19 16:36,507
6/5/19 16:36,510
6/5/19 16:36,507
6/5/19 16:36,510
6/5/19 16:36,506
6/5/19 16:36,507
6/5/19 16:36,509
6/5/19 16:36,502
6/5/19 16:36,507
6/5/19 16:36,505
6/5/19 16:36,505
6/5/19 16:36,508
6/5/19 16:36,504
6/5/19 16:36,509
6/5/19 16:36,505
6/5/19 16:36,509
6/5/19 16:36,508
6/5/19 16:36,504
6/5/19 16:36,507
6/5/19 16:36,504
6/5/19 16:36,507
6/5/19 16:36,509
6/5/19 16:36,504
6/5/19 16:36,509
6/5/19 16:36,503
6/5/19 16:36,506
6/5/19 16:36,508
6/5/19 16:36,505
6/5/19 16:36,528
6/5/19 16:36,529
6/5/19 16:36,508
6/5/19 16:36,488
6/5/19 16:36,486
6/5/19 16:36,503
6/5/19 16:36,498
6/5/19 16:36,504
6/5/19 16:36,503
6/5/19 16:36,501
6/5/19 16:36,512
6/5/19 16:36,505
6/5/19 16:36,505
6/5/19 16:36,504
6/5/19 16:36,504
6/5/19 16:36,510
6/5/19 16:36,504
6/5/19 16:36,510
6/5/19 16:36,508
6/5/19 16:36,505
6/5/19 16:36,510
6/5/19 16:36,505
6/5/19 16:36,509
6/5/19 16:36,506
6/5/19 16:36,505
6/5/19 16:36,512
6/5/19 16:36,506
6/5/19 16:36,510
6/5/19 16:36,508
6/5/19 16:36,509
6/5/19 16:36,513
6/5/19 16:36,506
6/5/19 16:36,511
6/5/19 16:36,508
6/5/19 16:36,507
6/5/19 16:36,509
6/5/19 16:36,503
6/5/19 16:36,509
6/5/19 16:36,508
6/5/19 16:36,505
6/5/19 16:36,509
6/5/19 16:36,505
6/5/19 16:36,509
6/5/19 16:36,507
6/5/19 16:36,506
6/5/19 16:36,510
6/5/19 16:36,504
6/5/19 16:36,512
6/5/19 16:36,507
6/5/19 16:36,506
6/5/19 16:36,508
6/5/19 16:36,503
6/5/19 16:36,510
6/5/19 16:36,507
6/5/19 16:36,505
6/5/19 16:36,508
6/5/19 16:36,504
6/5/19 16:36,509
6/5/19 16:36,504
6/5/19 16:36,505
6/5/19 16:36,508
6/5/19 16:36,502
6/5/19 16:36,507
6/5/19 16:36,505
6/5/19 16:36,508
6/5/19 16:36,507
6/5/19 16:36,502
6/5/19 16:36,509
6/5/19 16:36,505
6/5/19 16:36,507
6/5/19 16:36,507
6/5/19 16:36,506
6/5/19 16:36,547
6/5/19 16:36,529
6/5/19 16:36,490
6/5/19 16:36,488
6/5/19 16:36,494
6/5/19 16:36,502
6/5/19 16:36,500
6/5/19 16:36,501
6/5/19 16:36,505
6/5/19 16:36,505
6/5/19 16:36,508
6/5/19 16:36,501
6/5/19 16:36,506
6/5/19 16:36,507
6/5/19 16:36,502
6/5/19 16:36,508
6/5/19 16:36,505
6/5/19 16:36,510
6/5/19 16:36,508
6/5/19 16:36,506
6/5/19 16:36,509
6/5/19 16:36,503
6/5/19 16:36,508
6/5/19 16:36,508
6/5/19 16:36,505
6/5/19 16:36,511
6/5/19 16:36,504
6/5/19 16:36,509
6/5/19 16:36,510
6/5/19 16:36,509
6/5/19 16:36,513
6/5/19 16:36,506
6/5/19 16:36,510
6/5/19 16:36,507
6/5/19 16:36,508
6/5/19 16:36,511
6/5/19 16:36,505
6/5/19 16:36,507
6/5/19 16:36,506
6/5/19 16:36,505
6/5/19 16:36,511
6/5/19 16:36,505
6/5/19 16:36,509
6/5/19 16:36,506
6/5/19 16:36,505
6/5/19 16:36,512
6/5/19 16:36,504
6/5/19 16:36,511
6/5/19 16:36,507
6/5/19 16:36,506
6/5/19 16:36,510
6/5/19 16:36,502
6/5/19 16:36,509
6/5/19 16:36,507
6/5/19 16:36,505
6/5/19 16:36,509
6/5/19 16:36,505
6/5/19 16:36,508
6/5/19 16:36,505
6/5/19 16:36,504
6/5/19 16:36,509
6/5/19 16:36,502
6/5/19 16:36,509
6/5/19 16:36,504
6/5/19 16:36,505
6/5/19 16:36,509
6/5/19 16:36,504
6/5/19 16:36,510
6/5/19 16:36,506
6/5/19 16:36,507
6/5/19 16:36,508
6/5/19 16:36,504
6/5/19 16:36,544
6/5/19 16:36,534
6/5/19 16:36,494
6/5/19 16:36,486
6/5/19 16:36,487
6/5/19 16:36,503
6/5/19 16:36,502
6/5/19 16:36,502
6/5/19 16:36,504
6/5/19 16:36,499
6/5/19 16:36,509
6/5/19 16:36,506
6/5/19 16:36,501
6/5/19 16:36,512
6/5/19 16:36,507
6/5/19 16:36,512
6/5/19 16:36,506
6/5/19 16:36,508
6/5/19 16:36,507
6/5/19 16:36,501
6/5/19 16:36,508
6/5/19 16:36,503
6/5/19 16:36,508
6/5/19 16:36,509
6/5/19 16:36,505
6/5/19 16:36,511
6/5/19 16:36,506
6/5/19 16:36,509
6/5/19 16:36,511
6/5/19 16:36,505
6/5/19 16:36,511
6/5/19 16:36,506
6/5/19 16:36,509
6/5/19 16:36,509
6/5/19 16:36,507
6/5/19 16:36,510
6/5/19 16:36,506
6/5/19 16:36,508
6/5/19 16:36,508
6/5/19 16:36,507
6/5/19 16:36,511
6/5/19 16:36,505
6/5/19 16:36,510
6/5/19 16:36,507
6/5/19 16:36,503
6/5/19 16:36,509
6/5/19 16:36,503
6/5/19 16:36,509
6/5/19 16:36,507
6/5/19 16:36,507
6/5/19 16:36,508
6/5/19 16:36,503
6/5/19 16:36,508
6/5/19 16:36,507
6/5/19 16:36,505
6/5/19 16:36,510
6/5/19 16:36,502
6/5/19 16:36,510
6/5/19 16:36,506
6/5/19 16:36,506
6/5/19 16:36,508
6/5/19 16:36,504
6/5/19 16:36,508
6/5/19 16:36,505
6/5/19 16:36,505
6/5/19 16:36,508
6/5/19 16:36,504
6/5/19 16:36,509
6/5/19 16:36,505
6/5/19 16:36,509
6/5/19 16:36,511
6/5/19 16:36,509
6/5/19 16:36,543
6/5/19 16:36,520
6/5/19 16:36,486
6/5/19 16:36,489
6/5/19 16:36,490
6/5/19 16:36,504
6/5/19 16:36,504
6/5/19 16:36,508
6/5/19 16:36,506
6/5/19 16:36,500
6/5/19 16:36,505
6/5/19 16:36,502
6/5/19 16:36,507
6/5/19 16:36,508
6/5/19 16:36,499
6/5/19 16:36,509
6/5/19 16:36,505
6/5/19 16:36,507
6/5/19 16:36,509
6/5/19 16:36,504
6/5/19 16:36,510
6/5/19 16:36,506
6/5/19 16:36,506
6/5/19 16:36,511
6/5/19 16:36,506
6/5/19 16:36,511
6/5/19 16:36,507
6/5/19 16:36,508
6/5/19 16:36,510
6/5/19 16:36,508
6/5/19 16:36,513
6/5/19 16:36,507
6/5/19 16:36,509
6/5/19 16:36,510
6/5/19 16:36,505
6/5/19 16:36,512
6/5/19 16:36,505
6/5/19 16:36,506
6/5/19 16:36,508
6/5/19 16:36,505
6/5/19 16:36,510
6/5/19 16:36,505
6/5/19 16:36,508
6/5/19 16:36,508
6/5/19 16:36,506
6/5/19 16:36,511
6/5/19 16:36,504
6/5/19 16:36,509
6/5/19 16:36,508
6/5/19 16:36,505
6/5/19 16:36,506
6/5/19 16:36,505
6/5/19 16:36,507
6/5/19 16:36,509
6/5/19 16:36,504
6/5/19 16:36,510
6/5/19 16:36,506
6/5/19 16:36,507
6/5/19 16:36,505
6/5/19 16:36,504
6/5/19 16:36,510
6/5/19 16:36,503
6/5/19 16:36,506
6/5/19 16:36,506
6/5/19 16:36,505
6/5/19 16:36,509
6/5/19 16:36,503
6/5/19 16:36,509
6/5/19 16:36,506
6/5/19 16:36,505
6/5/19 16:36,511
6/5/19 16:36,539
6/5/19 16:36,535
6/5/19 16:36,492
6/5/19 16:36,486
6/5/19 16:36,494
6/5/19 16:36,497
6/5/19 16:36,505
6/5/19 16:36,502
6/5/19 16:36,504
6/5/19 16:36,506
6/5/19 16:36,503
6/5/19 16:36,509
6/5/19 16:36,506
6/5/19 16:36,503
6/5/19 16:36,510
6/5/19 16:36,506
6/5/19 16:36,509
6/5/19 16:36,507
6/5/19 16:36,506
6/5/19 16:36,508
6/5/19 16:36,504
6/5/19 16:36,509
6/5/19 16:36,504
6/5/19 16:36,506
6/5/19 16:36,507
6/5/19 16:36,504
6/5/19 16:36,507
6/5/19 16:36,509
6/5/19 16:36,510
6/5/19 16:36,512
6/5/19 16:36,505
6/5/19 16:36,514
6/5/19 16:36,507
6/5/19 16:36,508
6/5/19 16:36,508
6/5/19 16:36,505
6/5/19 16:36,511
6/5/19 16:36,507
6/5/19 16:36,508
6/5/19 16:36,510
6/5/19 16:36,506
6/5/19 16:36,509
6/5/19 16:36,505
6/5/19 16:36,507
6/5/19 16:36,508
6/5/19 16:36,504
6/5/19 16:36,511
6/5/19 16:36,506
6/5/19 16:36,509
6/5/19 16:36,508
6/5/19 16:36,505
6/5/19 16:36,507
6/5/19 16:36,503
6/5/19 16:36,508
6/5/19 16:36,506
6/5/19 16:36,504
6/5/19 16:36,510
6/5/19 16:36,505
6/5/19 16:36,508
6/5/19 16:36,506
6/5/19 16:36,503
6/5/19 16:36,508
6/5/19 16:36,502
6/5/19 16:36,509
6/5/19 16:36,507
6/5/19 16:36,506
6/5/19 16:36,509
6/5/19 16:36,500
6/5/19 16:36,509
6/5/19 16:36,508
6/5/19 16:36,506
6/5/19 16:36,542
6/5/19 16:36,537
6/5/19 16:36,500
6/5/19 16:36,485
6/5/19 16:36,484
6/5/19 16:36,497
6/5/19 16:36,497
6/5/19 16:36,507
6/5/19 16:36,505
6/5/19 16:36,505
6/5/19 16:45,505
6/5/19 16:45,505
6/5/19 16:45,510
6/5/19 16:45,503
6/5/19 16:45,507
6/5/19 16:45,506
6/5/19 16:45,505
6/5/19 16:45,509
6/5/19 16:45,504
6/5/19 16:45,505
6/5/19 16:45,506
6/5/19 16:45,505
6/5/19 16:45,509
6/5/19 16:45,504
6/5/19 16:45,508
6/5/19 16:45,508
6/5/19 16:45,505
6/5/19 16:45,509
6/5/19 16:45,505
6/5/19 16:45,507
6/5/19 16:45,507
6/5/19 16:45,537
6/5/19 16:45,543
6/5/19 16:45,493
6/5/19 16:45,485
6/5/19 16:45,493
6/5/19 16:45,500
6/5/19 16:45,506
6/5/19 16:45,498
6/5/19 16:45,503
6/5/19 16:45,504
6/5/19 16:45,506
6/5/19 16:45,513
6/5/19 16:45,503
6/5/19 16:45,505
6/5/19 16:45,504
6/5/19 16:45,502
6/5/19 16:45,509
6/5/19 16:45,504
6/5/19 16:45,508
6/5/19 16:45,508
6/5/19 16:45,506
6/5/19 16:45,510
6/5/19 16:45,505
6/5/19 16:45,509
6/5/19 16:45,507
6/5/19 16:45,509
6/5/19 16:45,512
6/5/19 16:45,506
6/5/19 16:45,509
6/5/19 16:45,509
6/5/19 16:45,508
6/5/19 16:45,511
6/5/19 16:45,506
6/5/19 16:45,511
6/5/19 16:45,507
6/5/19 16:45,507
6/5/19 16:45,511
6/5/19 16:45,505
6/5/19 16:45,512
6/5/19 16:45,507
6/5/19 16:45,505
6/5/19 16:45,509
6/5/19 16:45,504
6/5/19 16:45,510
6/5/19 16:45,507
6/5/19 16:45,507
6/5/19 16:45,508
6/5/19 16:45,504
6/5/19 16:45,510
6/5/19 16:45,506
6/5/19 16:45,505
6/5/19 16:45,509
6/5/19 16:45,502
6/5/19 16:45,509
6/5/19 16:45,507
6/5/19 16:45,508
6/5/19 16:45,509
6/5/19 16:45,504
6/5/19 16:45,508
6/5/19 16:45,507
6/5/19 16:45,505
6/5/19 16:45,508
6/5/19 16:45,502
6/5/19 16:45,509
6/5/19 16:45,506
6/5/19 16:45,507
6/5/19 16:45,508
6/5/19 16:45,506
6/5/19 16:45,510
6/5/19 16:45,505
6/5/19 16:45,506
6/5/19 16:45,509
6/5/19 16:45,517
6/5/19 16:45,546
6/5/19 16:45,510
6/5/19 16:45,484
6/5/19 16:45,490
6/5/19 16:45,496
6/5/19 16:45,508
6/5/19 16:45,502
6/5/19 16:45,499
6/5/19 16:45,504
6/5/19 16:45,502
6/5/19 16:45,510
6/5/19 16:45,505
6/5/19 16:45,506
6/5/19 16:45,509
6/5/19 16:45,504
6/5/19 16:45,511
6/5/19 16:45,505
6/5/19 16:45,506
6/5/19 16:45,507
6/5/19 16:45,503
6/5/19 16:45,508
6/5/19 16:45,503
6/5/19 16:45,507
6/5/19 16:45,508
6/5/19 16:45,504
6/5/19 16:45,509
6/5/19 16:45,505
6/5/19 16:45,508
6/5/19 16:45,510
6/5/19 16:45,506
6/5/19 16:45,511
6/5/19 16:45,507
6/5/19 16:45,511
6/5/19 16:45,509
6/5/19 16:45,505
6/5/19 16:45,513
6/5/19 16:45,505
6/5/19 16:45,509
6/5/19 16:45,509
6/5/19 16:45,505
6/5/19 16:45,510
6/5/19 16:45,505
6/5/19 16:45,507
6/5/19 16:45,509
6/5/19 16:45,506
6/5/19 16:45,511
6/5/19 16:45,506
6/5/19 16:45,509
6/5/19 16:45,507
6/5/19 16:45,505
6/5/19 16:45,509
6/5/19 16:45,504
6/5/19 16:45,509
6/5/19 16:45,509
6/5/19 16:45,505
6/5/19 16:45,510
6/5/19 16:45,502
6/5/19 16:45,508
6/5/19 16:45,505
6/5/19 16:45,503
6/5/19 16:45,509
6/5/19 16:45,505
6/5/19 16:45,508
6/5/19 16:45,505
6/5/19 16:45,506
6/5/19 16:45,509
6/5/19 16:45,504
6/5/19 16:45,508
6/5/19 16:45,506
6/5/19 16:45,505
6/5/19 16:45,508
6/5/19 16:45,505
6/5/19 16:45,547
6/5/19 16:45,537
6/5/19 16:45,488
6/5/19 16:45,489
6/5/19 16:45,490
6/5/19 16:45,501
6/5/19 16:45,498
6/5/19 16:45,494
6/5/19 16:45,504
6/5/19 16:45,503
6/5/19 16:45,510
6/5/19 16:45,510
6/5/19 16:45,510
6/5/19 16:45,513
6/5/19 16:45,506
6/5/19 16:45,511
6/5/19 16:45,505
6/5/19 16:45,506
6/5/19 16:45,508
6/5/19 16:45,503
6/5/19 16:45,510
6/5/19 16:45,503
6/5/19 16:45,506
6/5/19 16:45,508
6/5/19 16:45,505
6/5/19 16:45,509
6/5/19 16:45,506
6/5/19 16:45,508
6/5/19 16:45,508
6/5/19 16:45,505
6/5/19 16:45,511
6/5/19 16:45,507
6/5/19 16:45,508
6/5/19 16:45,509
6/5/19 16:45,507
6/5/19 16:45,513
6/5/19 16:45,506
6/5/19 16:45,508
6/5/19 16:45,511
6/5/19 16:45,505
6/5/19 16:45,507
6/5/19 16:45,506
6/5/19 16:45,507
6/5/19 16:45,509
6/5/19 16:45,506
6/5/19 16:45,512
6/5/19 16:45,505
6/5/19 16:45,508
6/5/19 16:45,510
6/5/19 16:45,504
6/5/19 16:45,510
6/5/19 16:45,504
6/5/19 16:45,508
6/5/19 16:45,509
6/5/19 16:45,504
6/5/19 16:45,510
6/5/19 16:45,504
6/5/19 16:45,508
6/5/19 16:45,507
6/5/19 16:45,503
6/5/19 16:45,508
6/5/19 16:45,503
6/5/19 16:45,506
6/5/19 16:45,507
6/5/19 16:45,504
6/5/19 16:45,509
6/5/19 16:45,504
6/5/19 16:45,507
6/5/19 16:45,507
6/5/19 16:45,504
6/5/19 16:45,510
6/5/19 16:45,505
6/5/19 16:45,532
6/5/19 16:45,540
6/5/19 16:45,498
6/5/19 16:45,488
6/5/19 16:45,485
6/5/19 16:45,505
6/5/19 16:45,505
6/5/19 16:45,499
6/5/19 16:45,502
6/5/19 16:45,499
6/5/19 16:45,506
6/5/19 16:45,508
6/5/19 16:45,507
6/5/19 16:45,512
6/5/19 16:45,505
6/5/19 16:45,511
6/5/19 16:45,507
6/5/19 16:45,505
6/5/19 16:45,508
6/5/19 16:45,503
6/5/19 16:45,508
6/5/19 16:45,505
6/5/19 16:45,505
6/5/19 16:45,508
6/5/19 16:45,503
6/5/19 16:45,509
6/5/19 16:45,507
6/5/19 16:45,505
6/5/19 16:45,508
6/5/19 16:45,506
6/5/19 16:45,511
6/5/19 16:45,508
6/5/19 16:45,507
6/5/19 16:45,510
6/5/19 16:45,508
6/5/19 16:45,512
6/5/19 16:45,508
6/5/19 16:45,506
6/5/19 16:45,511
6/5/19 16:45,504
6/5/19 16:45,510
6/5/19 16:45,507
6/5/19 16:45,507
6/5/19 16:45,511
6/5/19 16:45,506
6/5/19 16:45,510
6/5/19 16:45,507
6/5/19 16:45,508
6/5/19 16:45,509
6/5/19 16:45,504
6/5/19 16:45,510
6/5/19 16:45,505
6/5/19 16:45,507
6/5/19 16:45,509
6/5/19 16:45,505
6/5/19 16:45,510
6/5/19 16:45,506
6/5/19 16:45,507
6/5/19 16:45,507
6/5/19 16:45,501
6/5/19 16:45,508
6/5/19 16:45,504
6/5/19 16:45,505
6/5/19 16:45,508
6/5/19 16:45,504
6/5/19 16:45,508
6/5/19 16:45,506
6/5/19 16:45,507
6/5/19 16:45,510
6/5/19 16:45,504
6/5/19 16:45,510
6/5/19 16:45,505
6/5/19 16:45,532
6/5/19 16:45,543
6/5/19 16:45,495
6/5/19 16:45,486
6/5/19 16:45,488
6/5/19 16:45,500
6/5/19 16:45,499
6/5/19 16:45,500
6/5/19 16:45,505
6/5/19 16:45,501
6/5/19 16:45,507
6/5/19 16:45,510
6/5/19 16:45,505
6/5/19 16:45,512
6/5/19 16:45,506
6/5/19 16:45,508
6/5/19 16:45,509
6/5/19 16:45,505
6/5/19 16:45,510
6/5/19 16:45,504
6/5/19 16:45,508
6/5/19 16:45,507
6/5/19 16:45,503
6/5/19 16:45,509
6/5/19 16:45,504
6/5/19 16:45,509
6/5/19 16:45,508
6/5/19 16:45,507
6/5/19 16:45,512
6/5/19 16:45,504
6/5/19 16:45,508
6/5/19 16:45,510
6/5/19 16:45,507
6/5/19 16:45,510
6/5/19 16:45,506
6/5/19 16:45,509
6/5/19 16:45,509
6/5/19 16:45,505
6/5/19 16:45,510
6/5/19 16:45,506
6/5/19 16:45,510
6/5/19 16:45,507
6/5/19 16:45,504
6/5/19 16:45,511
6/5/19 16:45,507
6/5/19 16:45,508
6/5/19 16:45,507
6/5/19 16:45,506
6/5/19 16:45,509
6/5/19 16:45,506
6/5/19 16:45,509
6/5/19 16:45,507
6/5/19 16:45,506
6/5/19 16:45,507
6/5/19 16:45,502
6/5/19 16:45,508
6/5/19 16:45,506
6/5/19 16:45,506
6/5/19 16:45,507
6/5/19 16:45,505
6/5/19 16:45,506
6/5/19 16:45,506
6/5/19 16:45,506
6/5/19 16:45,506
6/5/19 16:45,505
6/5/19 16:45,508
6/5/19 16:45,505
6/5/19 16:45,506
6/5/19 16:45,508
6/5/19 16:45,504
6/5/19 16:45,510
6/5/19 16:45,510
6/5/19 16:45,542
6/5/19 16:45,523
6/5/19 16:45,486
6/5/19 16:45,487
6/5/19 16:45,496
6/5/19 16:45,504
6/5/19 16:45,506
6/5/19 16:45,497
6/5/19 16:45,503
6/5/19 16:45,503
6/5/19 16:45,505
6/5/19 16:45,514
6/5/19 16:45,510
6/5/19 16:45,507
6/5/19 16:45,501
6/5/19 16:45,501
6/5/19 16:45,505
6/5/19 16:45,502
6/5/19 16:45,509
6/5/19 16:45,507
6/5/19 16:45,507
6/5/19 16:45,510
6/5/19 16:45,506
6/5/19 16:45,510
6/5/19 16:45,507
6/5/19 16:45,509
6/5/19 16:45,510
6/5/19 16:45,507
6/5/19 16:45,513
6/5/19 16:45,506
6/5/19 16:45,509
6/5/19 16:45,510
6/5/19 16:45,506
6/5/19 16:45,513
6/5/19 16:45,506
6/5/19 16:45,509
6/5/19 16:45,506
6/5/19 16:45,505
6/5/19 16:45,510
6/5/19 16:45,505
6/5/19 16:45,508
6/5/19 16:45,509
6/5/19 16:45,505
6/5/19 16:45,509
6/5/19 16:45,505
6/5/19 16:45,507
6/5/19 16:45,507
6/5/19 16:45,506
6/5/19 16:45,510
6/5/19 16:45,506
6/5/19 16:45,508
6/5/19 16:45,507
6/5/19 16:45,503
6/5/19 16:45,508
6/5/19 16:45,504
6/5/19 16:45,507
6/5/19 16:45,507
6/5/19 16:45,503
6/5/19 16:45,509
6/5/19 16:45,503
6/5/19 16:45,507
6/5/19 16:45,507
6/5/19 16:45,502
6/5/19 16:45,507
6/5/19 16:45,505
6/5/19 16:45,508
6/5/19 16:45,508
6/5/19 16:45,505
6/5/19 16:45,511
6/5/19 16:45,503
6/5/19 16:45,509
6/5/19 16:45,508
6/5/19 16:45,508
6/5/19 16:45,510
6/5/19 16:45,504
6/5/19 16:45,509
6/5/19 16:45,507
6/5/19 16:45,506
6/5/19 16:45,510
6/5/19 16:45,503
6/5/19 16:45,507
6/5/19 16:45,509
6/5/19 16:45,547
6/5/19 16:45,524
6/5/19 16:45,480
6/5/19 16:45,484
6/5/19 16:45,490
6/5/19 16:45,498
6/5/19 16:45,507
6/5/19 16:45,504
6/5/19 16:45,510
6/5/19 16:45,508
6/5/19 16:45,507
6/5/19 16:45,513
6/5/19 16:45,507
6/5/19 16:45,510
6/5/19 16:45,505
6/5/19 16:45,506
6/5/19 16:45,506
6/5/19 16:45,502
6/5/19 16:45,507
6/5/19 16:45,506
6/5/19 16:45,503
6/5/19 16:45,507
6/5/19 16:45,503
6/5/19 16:45,509
6/5/19 16:45,505
6/5/19 16:45,505
6/5/19 16:45,509
6/5/19 16:45,505
6/5/19 16:45,512
6/5/19 16:45,505
6/5/19 16:45,508
6/5/19 16:45,510
6/5/19 16:45,507
6/5/19 16:45,513
6/5/19 16:45,508
6/5/19 16:45,510
6/5/19 16:45,507
6/5/19 16:45,505
6/5/19 16:45,512
6/5/19 16:45,508
6/5/19 16:45,507
6/5/19 16:45,509
6/5/19 16:45,504
6/5/19 16:45,511
6/5/19 16:45,505
6/5/19 16:45,509
6/5/19 16:45,508
6/5/19 16:45,503
6/5/19 16:45,510
6/5/19 16:45,506
6/5/19 16:45,510
6/5/19 16:45,507
6/5/19 16:45,505
6/5/19 16:45,508
6/5/19 16:45,505
6/5/19 16:45,508
6/5/19 16:45,508
6/5/19 16:45,504
6/5/19 16:45,512
6/5/19 16:45,504
6/5/19 16:45,506
6/5/19 16:45,507
6/5/19 16:45,505
6/5/19 16:45,505
6/5/19 16:45,504
6/5/19 16:45,506
6/5/19 16:45,506
6/5/19 16:45,504
6/5/19 16:45,511
6/5/19 16:45,504
6/5/19 16:45,509
6/5/19 16:45,506
6/5/19 16:45,506
6/5/19 16:45,513
6/5/19 16:45,533
6/5/19 16:45,537
6/5/19 16:45,487
6/5/19 16:45,485
6/5/19 16:45,499
6/5/19 16:45,497
6/5/19 16:45,506
6/5/19 16:45,505
6/5/19 16:45,503
6/5/19 16:45,511
6/5/19 16:45,507
6/5/19 16:45,511
6/5/19 16:45,509
6/5/19 16:45,506
6/5/19 16:45,507
6/5/19 16:45,501
6/5/19 16:45,507
6/5/19 16:45,505
6/5/19 16:45,503
6/5/19 16:45,506
6/5/19 16:45,499
6/5/19 16:45,509
6/5/19 16:45,505
6/5/19 16:45,503
6/5/19 16:45,509
6/5/19 16:45,505
6/5/19 16:45,512
6/5/19 16:45,507
6/5/19 16:45,507
6/5/19 16:45,510
6/5/19 16:45,506
6/5/19 16:45,511
6/5/19 16:45,508
6/5/19 16:45,508
6/5/19 16:45,511
6/5/19 16:45,506
6/5/19 16:45,510
6/5/19 16:45,507
6/5/19 16:45,508
6/5/19 16:45,511
6/5/19 16:45,505
6/5/19 16:45,509
6/5/19 16:45,506
6/5/19 16:45,508
6/5/19 16:45,510
6/5/19 16:45,505
6/5/19 16:45,510
6/5/19 16:45,507
6/5/19 16:45,507
6/5/19 16:45,509
6/5/19 16:45,504
6/5/19 16:45,505
6/5/19 16:45,504
6/5/19 16:45,506
6/5/19 16:45,508
6/5/19 16:45,503
6/5/19 16:45,510
6/5/19 16:45,505
6/5/19 16:45,506
6/5/19 16:45,508
6/5/19 16:45,504
6/5/19 16:45,510
6/5/19 16:54,507
6/5/19 16:54,509
6/5/19 16:54,505
6/5/19 16:54,510
6/5/19 16:54,504
6/5/19 16:54,508
6/5/19 16:54,509
6/5/19 16:54,505
6/5/19 16:54,509
6/5/19 16:54,504
6/5/19 16:54,508
6/5/19 16:54,507
6/5/19 16:54,504
6/5/19 16:54,511
6/5/19 16:54,502
6/5/19 16:54,509
6/5/19 16:54,506
6/5/19 16:54,504
6/5/19 16:54,507
6/5/19 16:54,505
6/5/19 16:54,508
6/5/19 16:54,504
6/5/19 16:54,505
6/5/19 16:54,506
6/5/19 16:54,504
6/5/19 16:54,509
6/5/19 16:54,509
6/5/19 16:54,520
6/5/19 16:54,543
6/5/19 16:54,508
6/5/19 16:54,489
6/5/19 16:54,491
6/5/19 16:54,497
6/5/19 16:54,508
6/5/19 16:54,503
6/5/19 16:54,503
6/5/19 16:54,501
6/5/19 16:54,501
6/5/19 16:54,508
6/5/19 16:54,504
6/5/19 16:54,510
6/5/19 16:54,505
6/5/19 16:54,506
6/5/19 16:54,508
6/5/19 16:54,504
6/5/19 16:54,509
6/5/19 16:54,506
6/5/19 16:54,505
6/5/19 16:54,508
6/5/19 16:54,503
6/5/19 16:54,509
6/5/19 16:54,505
6/5/19 16:54,504
6/5/19 16:54,508
6/5/19 16:54,506
6/5/19 16:54,510
6/5/19 16:54,508
6/5/19 16:54,508
6/5/19 16:54,510
6/5/19 16:54,505
6/5/19 16:54,512
6/5/19 16:54,509
6/5/19 16:54,509
6/5/19 16:54,512
6/5/19 16:54,507
6/5/19 16:54,509
6/5/19 16:54,507
6/5/19 16:54,507
6/5/19 16:54,509
6/5/19 16:54,505
6/5/19 16:54,510
6/5/19 16:54,506
6/5/19 16:54,508
6/5/19 16:54,509
6/5/19 16:54,506
6/5/19 16:54,509
6/5/19 16:54,506
6/5/19 16:54,508
6/5/19 16:54,509
6/5/19 16:54,505
6/5/19 16:54,509
6/5/19 16:54,505
6/5/19 16:54,507
6/5/19 16:54,509
6/5/19 16:54,502
6/5/19 16:54,508
6/5/19 16:54,504
6/5/19 16:54,506
6/5/19 16:54,506
6/5/19 16:54,506
6/5/19 16:54,509
6/5/19 16:54,506
6/5/19 16:54,506
6/5/19 16:54,506
6/5/19 16:54,504
6/5/19 16:54,511
6/5/19 16:54,504
6/5/19 16:54,508
6/5/19 16:54,507
6/5/19 16:54,506
6/5/19 16:54,545
6/5/19 16:54,524
6/5/19 16:54,489
6/5/19 16:54,488
6/5/19 16:54,491
6/5/19 16:54,500
6/5/19 16:54,498
6/5/19 16:54,507
6/5/19 16:54,508
6/5/19 16:54,506
6/5/19 16:54,511
6/5/19 16:54,507
6/5/19 16:54,510
6/5/19 16:54,507
6/5/19 16:54,505
6/5/19 16:54,507
6/5/19 16:54,501
6/5/19 16:54,506
6/5/19 16:54,505
6/5/19 16:54,504
6/5/19 16:54,509
6/5/19 16:54,503
6/5/19 16:54,507
6/5/19 16:54,505
6/5/19 16:54,504
6/5/19 16:54,510
6/5/19 16:54,504
6/5/19 16:54,510
6/5/19 16:54,506
6/5/19 16:54,508
6/5/19 16:54,511
6/5/19 16:54,506
6/5/19 16:54,511
6/5/19 16:54,509
6/5/19 16:54,509
6/5/19 16:54,510
6/5/19 16:54,506
6/5/19 16:54,510
6/5/19 16:54,508
6/5/19 16:54,507
6/5/19 16:54,509
6/5/19 16:54,505
6/5/19 16:54,509
6/5/19 16:54,506
6/5/19 16:54,506
6/5/19 16:54,509
6/5/19 16:54,506
6/5/19 16:54,511
6/5/19 16:54,506
6/5/19 16:54,507
6/5/19 16:54,510
6/5/19 16:54,504
6/5/19 16:54,509
6/5/19 16:54,505
6/5/19 16:54,507
6/5/19 16:54,509
6/5/19 16:54,503
6/5/19 16:54,508
6/5/19 16:54,505
6/5/19 16:54,503
6/5/19 16:54,508
6/5/19 16:54,503
6/5/19 16:54,508
6/5/19 16:54,504
6/5/19 16:54,505
6/5/19 16:54,508
6/5/19 16:54,505
6/5/19 16:54,508
6/5/19 16:54,505
6/5/19 16:54,511
6/5/19 16:54,539
6/5/19 16:54,526
6/5/19 16:54,491
6/5/19 16:54,487
6/5/19 16:54,501
6/5/19 16:54,502
6/5/19 16:54,498
6/5/19 16:54,509
6/5/19 16:54,508
6/5/19 16:54,503
6/5/19 16:54,503
6/5/19 16:54,502
6/5/19 16:54,509
6/5/19 16:54,504
6/5/19 16:54,507
6/5/19 16:54,508
6/5/19 16:54,506
6/5/19 16:54,510
6/5/19 16:54,505
6/5/19 16:54,507
6/5/19 16:54,507
6/5/19 16:54,503
6/5/19 16:54,508
6/5/19 16:54,503
6/5/19 16:54,509
6/5/19 16:54,507
6/5/19 16:54,507
6/5/19 16:54,511
6/5/19 16:54,507
6/5/19 16:54,510
6/5/19 16:54,509
6/5/19 16:54,507
6/5/19 16:54,512
6/5/19 16:54,505
6/5/19 16:54,510
6/5/19 16:54,509
6/5/19 16:54,506
6/5/19 16:54,509
6/5/19 16:54,504
6/5/19 16:54,508
6/5/19 16:54,509
6/5/19 16:54,507
6/5/19 16:54,511
6/5/19 16:54,504
6/5/19 16:54,510
6/5/19 16:54,508
6/5/19 16:54,507
6/5/19 16:54,509
6/5/19 16:54,504
6/5/19 16:54,508
6/5/19 16:54,505
6/5/19 16:54,506
6/5/19 16:54,508
6/5/19 16:54,504
6/5/19 16:54,509
6/5/19 16:54,507
6/5/19 16:54,505
6/5/19 16:54,509
6/5/19 16:54,503
6/5/19 16:54,508
6/5/19 16:54,506
6/5/19 16:54,505
6/5/19 16:54,507
6/5/19 16:54,503
6/5/19 16:54,508
6/5/19 16:54,506
6/5/19 16:54,507
6/5/19 16:54,508
6/5/19 16:54,504
6/5/19 16:54,510
6/5/19 16:54,506
6/5/19 16:54,518
6/5/19 16:54,540
6/5/19 16:54,509
6/5/19 16:54,490
6/5/19 16:54,486
6/5/19 16:54,497
6/5/19 16:54,503
6/5/19 16:54,496
6/5/19 16:54,505
6/5/19 16:54,503
6/5/19 16:54,508
6/5/19 16:54,507
6/5/19 16:54,500
6/5/19 16:54,510
6/5/19 16:54,504
6/5/19 16:54,508
6/5/19 16:54,508
6/5/19 16:54,505
6/5/19 16:54,510
6/5/19 16:54,506
6/5/19 16:54,506
6/5/19 16:54,509
6/5/19 16:54,504
6/5/19 16:54,511
6/5/19 16:54,507
6/5/19 16:54,508
6/5/19 16:54,510
6/5/19 16:54,504
6/5/19 16:54,511
6/5/19 16:54,506
6/5/19 16:54,510
6/5/19 16:54,510
6/5/19 16:54,506
6/5/19 16:54,511
6/5/19 16:54,506
6/5/19 16:54,510
6/5/19 16:54,510
6/5/19 16:54,505
6/5/19 16:54,511
6/5/19 16:54,504
6/5/19 16:54,508
6/5/19 16:54,507
6/5/19 16:54,507
6/5/19 16:54,509
6/5/19 16:54,503
6/5/19 16:54,509
6/5/19 16:54,507
6/5/19 16:54,506
6/5/19 16:54,509
6/5/19 16:54,504
6/5/19 16:54,508
6/5/19 16:54,506
6/5/19 16:54,506
6/5/19 16:54,509
6/5/19 16:54,504
6/5/19 16:54,507
6/5/19 16:54,509
6/5/19 16:54,506
6/5/19 16:54,509
6/5/19 16:54,505
6/5/19 16:54,508
6/5/19 16:54,504
6/5/19 16:54,503
6/5/19 16:54,507
6/5/19 16:54,503
6/5/19 16:54,508
6/5/19 16:54,506
6/5/19 16:54,507
6/5/19 16:54,507
6/5/19 16:54,503
6/5/19 16:54,509
6/5/19 16:54,507
6/5/19 16:54,507
6/5/19 16:54,514
6/5/19 16:54,539
6/5/19 16:54,524
6/5/19 16:54,485
6/5/19 16:54,488
6/5/19 16:54,497
6/5/19 16:54,497
6/5/19 16:54,503
6/5/19 16:54,502
6/5/19 16:54,501
6/5/19 16:54,505
6/5/19 16:54,502
6/5/19 16:54,511
6/5/19 16:54,507
6/5/19 16:54,509
6/5/19 16:54,510
6/5/19 16:54,504
6/5/19 16:54,510
6/5/19 16:54,505
6/5/19 16:54,507
6/5/19 16:54,508
6/5/19 16:54,502
6/5/19 16:54,508
6/5/19 16:54,506
6/5/19 16:54,507
6/5/19 16:54,509
6/5/19 16:54,506
6/5/19 16:54,510
6/5/19 16:54,507
6/5/19 16:54,508
6/5/19 16:54,510
6/5/19 16:54,504
6/5/19 16:54,513
6/5/19 16:54,507
6/5/19 16:54,509
6/5/19 16:54,509
6/5/19 16:54,505
6/5/19 16:54,512
6/5/19 16:54,507
6/5/19 16:54,510
6/5/19 16:54,510
6/5/19 16:54,505
6/5/19 16:54,511
6/5/19 16:54,505
6/5/19 16:54,507
6/5/19 16:54,507
6/5/19 16:54,502
6/5/19 16:54,511
6/5/19 16:54,505
6/5/19 16:54,507
6/5/19 16:54,508
6/5/19 16:54,503
6/5/19 16:54,509
6/5/19 16:54,505
6/5/19 16:54,509
6/5/19 16:54,506
6/5/19 16:54,506
6/5/19 16:54,508
6/5/19 16:54,505
6/5/19 16:54,508
6/5/19 16:54,507
6/5/19 16:54,503
6/5/19 16:54,508
6/5/19 16:54,505
6/5/19 16:54,506
6/5/19 16:54,506
6/5/19 16:54,504
6/5/19 16:54,508
6/5/19 16:54,501
6/5/19 16:54,508
6/5/19 16:54,507
6/5/19 16:54,508
6/5/19 16:54,513
6/5/19 16:54,542
6/5/19 16:54,540
6/5/19 16:54,488
6/5/19 16:54,484
6/5/19 16:54,495
6/5/19 16:54,494
6/5/19 16:54,502
6/5/19 16:54,501
6/5/19 16:54,503
6/5/19 16:54,508
6/5/19 16:54,506
6/5/19 16:54,511
6/5/19 16:54,507
6/5/19 16:54,507
6/5/19 16:54,511
6/5/19 16:54,504
6/5/19 16:54,509
6/5/19 16:54,506
6/5/19 16:54,506
6/5/19 16:54,505
6/5/19 16:54,502
6/5/19 16:54,508
6/5/19 16:54,506
6/5/19 16:54,505
6/5/19 16:54,509
6/5/19 16:54,503
6/5/19 16:54,510
6/5/19 16:54,507
6/5/19 16:54,506
6/5/19 16:54,510
6/5/19 16:54,506
6/5/19 16:54,511
6/5/19 16:54,506
6/5/19 16:54,508
6/5/19 16:54,510
6/5/19 16:54,506
6/5/19 16:54,511
6/5/19 16:54,507
6/5/19 16:54,508
6/5/19 16:54,509
6/5/19 16:54,505
6/5/19 16:54,511
6/5/19 16:54,506
6/5/19 16:54,509
6/5/19 16:54,509
6/5/19 16:54,504
6/5/19 16:54,509
6/5/19 16:54,505
6/5/19 16:54,509
6/5/19 16:54,508
6/5/19 16:54,506
6/5/19 16:54,509
6/5/19 16:54,505
6/5/19 16:54,508
6/5/19 16:54,507
6/5/19 16:54,503
6/5/19 16:54,509
6/5/19 16:54,503
6/5/19 16:54,506
6/5/19 16:54,505
6/5/19 16:54,503
6/5/19 16:54,508
6/5/19 16:54,503
6/5/19 16:54,508
6/5/19 16:54,508
6/5/19 16:54,506
6/5/19 16:54,512
6/5/19 16:54,501
6/5/19 16:54,508
6/5/19 16:54,507
6/5/19 16:54,507
6/5/19 16:54,524
6/5/19 16:54,536
6/5/19 16:54,516
6/5/19 16:54,485
6/5/19 16:54,484
6/5/19 16:54,503
6/5/19 16:54,496
6/5/19 16:54,501
6/5/19 16:54,501
6/5/19 16:54,504
6/5/19 16:54,507
6/5/19 16:54,503
6/5/19 16:54,509
6/5/19 16:54,507
6/5/19 16:54,506
6/5/19 16:54,510
6/5/19 16:54,506
6/5/19 16:54,510
6/5/19 16:54,507
6/5/19 16:54,506
6/5/19 16:54,508
6/5/19 16:54,502
6/5/19 16:54,511
6/5/19 16:54,506
6/5/19 16:54,505
6/5/19 16:54,508
6/5/19 16:54,504
6/5/19 16:54,510
6/5/19 16:54,507
6/5/19 16:54,507
6/5/19 16:54,510
6/5/19 16:54,506
6/5/19 16:54,512
6/5/19 16:54,506
6/5/19 16:54,507
6/5/19 16:54,509
6/5/19 16:54,505
6/5/19 16:54,511
6/5/19 16:54,508
6/5/19 16:54,508
6/5/19 16:54,508
6/5/19 16:54,503
6/5/19 16:54,511
6/5/19 16:54,504
6/5/19 16:54,507
6/5/19 16:54,508
6/5/19 16:54,504
6/5/19 16:54,511
6/5/19 16:54,506
6/5/19 16:54,506
6/5/19 16:54,509
6/5/19 16:54,504
6/5/19 16:54,509
6/5/19 16:54,506
6/5/19 16:54,507
6/5/19 16:54,507
6/5/19 16:54,504
6/5/19 16:54,511
6/5/19 16:54,504
6/5/19 16:54,506
6/5/19 16:54,508
6/5/19 16:54,503
6/5/19 16:54,507
6/5/19 16:54,503
6/5/19 16:54,508
6/5/19 16:54,507
6/5/19 16:54,506
6/5/19 16:54,509
6/5/19 16:54,504
6/5/19 16:54,508
6/5/19 16:54,508
6/5/19 16:54,505
6/5/19 16:54,509
6/5/19 16:54,506
6/5/19 16:54,545
6/5/19 16:54,536
6/5/19 16:54,488
6/5/19 16:54,488
6/5/19 16:54,487
6/5/19 16:54,507
6/5/19 16:54,504
6/5/19 16:54,497
6/5/19 16:54,505
6/5/19 16:54,502
6/5/19 16:54,509
6/5/19 16:54,508
6/5/19 16:54,506
6/5/19 16:54,510
6/5/19 16:54,506
6/5/19 16:54,509
6/5/19 16:54,506
6/5/19 16:54,505
6/5/19 16:54,510
6/5/19 16:54,503
6/5/19 16:54,508
6/5/19 16:54,504
6/5/19 16:54,503
6/5/19 16:54,507
6/5/19 16:54,503
6/5/19 16:54,508
6/5/19 16:54,506
6/5/19 16:54,506
6/5/19 16:54,510
6/5/19 16:54,504
6/5/19 16:54,511
6/5/19 16:54,507
6/5/19 16:54,507
6/5/19 16:54,512
6/5/19 16:54,505
6/5/19 16:54,511
6/5/19 16:54,508
6/5/19 16:54,507
6/5/19 16:54,510
6/5/19 16:54,505
6/5/19 16:54,512
6/5/19 16:54,507
6/5/19 16:54,508
6/5/19 16:54,509
6/5/19 16:54,506
6/5/19 16:54,510
6/5/19 16:54,507
6/5/19 16:54,507
6/5/19 16:54,508
6/5/19 16:54,508
6/5/19 16:54,510
6/5/19 16:54,506
6/5/19 16:54,505
6/5/19 16:54,508
6/5/19 16:54,504
6/5/19 16:54,507
6/5/19 16:54,504
6/5/19 16:54,506
6/5/19 16:54,508
6/5/19 16:54,503
6/5/19 16:54,509
6/5/19 16:54,506
6/5/19 16:54,505
6/5/19 16:54,508
6/5/19 16:54,503
6/5/19 16:54,510
6/5/19 16:54,504
6/5/19 16:54,507
6/5/19 17:03,503
6/5/19 17:03,502
6/5/19 17:03,509
6/5/19 17:03,506
6/5/19 17:03,505
6/5/19 17:03,509
6/5/19 17:03,504
6/5/19 17:03,508
6/5/19 17:03,505
6/5/19 17:03,508
6/5/19 17:03,508
6/5/19 17:03,539
6/5/19 17:03,544
6/5/19 17:03,491
6/5/19 17:03,487
6/5/19 17:03,494
6/5/19 17:03,497
6/5/19 17:03,508
6/5/19 17:03,504
6/5/19 17:03,504
6/5/19 17:03,502
6/5/19 17:03,500
6/5/19 17:03,508
6/5/19 17:03,504
6/5/19 17:03,507
6/5/19 17:03,510
6/5/19 17:03,502
6/5/19 17:03,510
6/5/19 17:03,506
6/5/19 17:03,506
6/5/19 17:03,510
6/5/19 17:03,504
6/5/19 17:03,509
6/5/19 17:03,504
6/5/19 17:03,508
6/5/19 17:03,508
6/5/19 17:03,505
6/5/19 17:03,510
6/5/19 17:03,507
6/5/19 17:03,510
6/5/19 17:03,511
6/5/19 17:03,505
6/5/19 17:03,511
6/5/19 17:03,505
6/5/19 17:03,511
6/5/19 17:03,509
6/5/19 17:03,506
6/5/19 17:03,511
6/5/19 17:03,506
6/5/19 17:03,507
6/5/19 17:03,509
6/5/19 17:03,507
6/5/19 17:03,509
6/5/19 17:03,505
6/5/19 17:03,509
6/5/19 17:03,509
6/5/19 17:03,504
6/5/19 17:03,513
6/5/19 17:03,503
6/5/19 17:03,510
6/5/19 17:03,506
6/5/19 17:03,505
6/5/19 17:03,511
6/5/19 17:03,504
6/5/19 17:03,509
6/5/19 17:03,508
6/5/19 17:03,504
6/5/19 17:03,510
6/5/19 17:03,503
6/5/19 17:03,508
6/5/19 17:03,508
6/5/19 17:03,503
6/5/19 17:03,510
6/5/19 17:03,503
6/5/19 17:03,509
6/5/19 17:03,506
6/5/19 17:03,503
6/5/19 17:03,509
6/5/19 17:03,503
6/5/19 17:03,508
6/5/19 17:03,506
6/5/19 17:03,506
6/5/19 17:03,511
6/5/19 17:03,539
6/5/19 17:03,539
6/5/19 17:03,489
6/5/19 17:03,486
6/5/19 17:03,496
6/5/19 17:03,498
6/5/19 17:03,500
6/5/19 17:03,500
6/5/19 17:03,502
6/5/19 17:03,507
6/5/19 17:03,504
6/5/19 17:03,513
6/5/19 17:03,508
6/5/19 17:03,508
6/5/19 17:03,513
6/5/19 17:03,505
6/5/19 17:03,510
6/5/19 17:03,505
6/5/19 17:03,505
6/5/19 17:03,508
6/5/19 17:03,501
6/5/19 17:03,508
6/5/19 17:03,504
6/5/19 17:03,505
6/5/19 17:03,507
6/5/19 17:03,503
6/5/19 17:03,511
6/5/19 17:03,506
6/5/19 17:03,506
6/5/19 17:03,511
6/5/19 17:03,505
6/5/19 17:03,511
6/5/19 17:03,508
6/5/19 17:03,508
6/5/19 17:03,511
6/5/19 17:03,506
6/5/19 17:03,511
6/5/19 17:03,507
6/5/19 17:03,508
6/5/19 17:03,510
6/5/19 17:03,505
6/5/19 17:03,509
6/5/19 17:03,507
6/5/19 17:03,508
6/5/19 17:03,510
6/5/19 17:03,505
6/5/19 17:03,510
6/5/19 17:03,506
6/5/19 17:03,508
6/5/19 17:03,509
6/5/19 17:03,506
6/5/19 17:03,509
6/5/19 17:03,507
6/5/19 17:03,506
6/5/19 17:03,508
6/5/19 17:03,503
6/5/19 17:03,509
6/5/19 17:03,500
6/5/19 17:03,506
6/5/19 17:03,506
6/5/19 17:03,503
6/5/19 17:03,509
6/5/19 17:03,502
6/5/19 17:03,508
6/5/19 17:03,508
6/5/19 17:03,503
6/5/19 17:03,509
6/5/19 17:03,502
6/5/19 17:03,505
6/5/19 17:03,509
6/5/19 17:03,506
6/5/19 17:03,511
6/5/19 17:03,541
6/5/19 17:03,540
6/5/19 17:03,492
6/5/19 17:03,484
6/5/19 17:03,495
6/5/19 17:03,499
6/5/19 17:03,500
6/5/19 17:03,499
6/5/19 17:03,499
6/5/19 17:03,507
6/5/19 17:03,505
6/5/19 17:03,513
6/5/19 17:03,517
6/5/19 17:03,506
6/5/19 17:03,505
6/5/19 17:03,500
6/5/19 17:03,506
6/5/19 17:03,506
6/5/19 17:03,503
6/5/19 17:03,509
6/5/19 17:03,504
6/5/19 17:03,508
6/5/19 17:03,508
6/5/19 17:03,506
6/5/19 17:03,513
6/5/19 17:03,505
6/5/19 17:03,512
6/5/19 17:03,507
6/5/19 17:03,508
6/5/19 17:03,512
6/5/19 17:03,504
6/5/19 17:03,509
6/5/19 17:03,509
6/5/19 17:03,507
6/5/19 17:03,511
6/5/19 17:03,504
6/5/19 17:03,510
6/5/19 17:03,506
6/5/19 17:03,506
6/5/19 17:03,510
6/5/19 17:03,505
6/5/19 17:03,510
6/5/19 17:03,505
6/5/19 17:03,502
6/5/19 17:03,510
6/5/19 17:03,507
6/5/19 17:03,510
6/5/19 17:03,508
6/5/19 17:03,506
6/5/19 17:03,510
6/5/19 17:03,505
6/5/19 17:03,507
6/5/19 17:03,506
6/5/19 17:03,505
6/5/19 17:03,509
6/5/19 17:03,506
6/5/19 17:03,508
6/5/19 17:03,504
6/5/19 17:03,505
6/5/19 17:03,509
6/5/19 17:03,501
6/5/19 17:03,509
6/5/19 17:03,506
6/5/19 17:03,505
6/5/19 17:03,508
6/5/19 17:03,503
6/5/19 17:03,510
6/5/19 17:03,505
6/5/19 17:03,506
6/5/19 17:03,508
6/5/19 17:03,504
6/5/19 17:03,510
6/5/19 17:03,505
6/5/19 17:03,541
6/5/19 17:03,542
6/5/19 17:03,488
6/5/19 17:03,489
6/5/19 17:03,492
6/5/19 17:03,501
6/5/19 17:03,509
6/5/19 17:03,503
6/5/19 17:03,504
6/5/19 17:03,501
6/5/19 17:03,505
6/5/19 17:03,509
6/5/19 17:03,503
6/5/19 17:03,511
6/5/19 17:03,506
6/5/19 17:03,509
6/5/19 17:03,507
6/5/19 17:03,504
6/5/19 17:03,509
6/5/19 17:03,503
6/5/19 17:03,504
6/5/19 17:03,507
6/5/19 17:03,504
6/5/19 17:03,508
6/5/19 17:03,503
6/5/19 17:03,507
6/5/19 17:03,510
6/5/19 17:03,506
6/5/19 17:03,512
6/5/19 17:03,506
6/5/19 17:03,507
6/5/19 17:03,510
6/5/19 17:03,506
6/5/19 17:03,508
6/5/19 17:03,505
6/5/19 17:03,511
6/5/19 17:03,511
6/5/19 17:03,506
6/5/19 17:03,512
6/5/19 17:03,507
6/5/19 17:03,509
6/5/19 17:03,509
6/5/19 17:03,505
6/5/19 17:03,510
6/5/19 17:03,508
6/5/19 17:03,509
6/5/19 17:03,509
6/5/19 17:03,507
6/5/19 17:03,511
6/5/19 17:03,505
6/5/19 17:03,508
6/5/19 17:03,508
6/5/19 17:03,504
6/5/19 17:03,510
6/5/19 17:03,504
6/5/19 17:03,508
6/5/19 17:03,506
6/5/19 17:03,504
6/5/19 17:03,508
6/5/19 17:03,504
6/5/19 17:03,508
6/5/19 17:03,504
6/5/19 17:03,504
6/5/19 17:03,508
6/5/19 17:03,502
6/5/19 17:03,509
6/5/19 17:03,507
6/5/19 17:03,505
6/5/19 17:03,509
6/5/19 17:03,505
6/5/19 17:03,508
6/5/19 17:03,506
6/5/19 17:03,535
6/5/19 17:03,544
6/5/19 17:03,490
6/5/19 17:03,488
6/5/19 17:03,489
6/5/19 17:03,501
6/5/19 17:03,509
6/5/19 17:03,502
6/5/19 17:03,503
6/5/19 17:03,501
6/5/19 17:03,504
6/5/19 17:03,509
6/5/19 17:03,504
6/5/19 17:03,510
6/5/19 17:03,507
6/5/19 17:03,507
6/5/19 17:03,508
6/5/19 17:03,503
6/5/19 17:03,506
6/5/19 17:03,504
6/5/19 17:03,505
6/5/19 17:03,508
6/5/19 17:03,503
6/5/19 17:03,509
6/5/19 17:03,505
6/5/19 17:03,507
6/5/19 17:03,510
6/5/19 17:03,504
6/5/19 17:03,511
6/5/19 17:03,507
6/5/19 17:03,508
6/5/19 17:03,512
6/5/19 17:03,504
6/5/19 17:03,511
6/5/19 17:03,507
6/5/19 17:03,508
6/5/19 17:03,509
6/5/19 17:03,505
6/5/19 17:03,512
6/5/19 17:03,506
6/5/19 17:03,507
6/5/19 17:03,509
6/5/19 17:03,501
6/5/19 17:03,511
6/5/19 17:03,507
6/5/19 17:03,507
6/5/19 17:03,511
6/5/19 17:03,506
6/5/19 17:03,515
6/5/19 17:03,506
6/5/19 17:03,508
6/5/19 17:03,512
6/5/19 17:03,505
6/5/19 17:03,509
6/5/19 17:03,505
6/5/19 17:03,507
6/5/19 17:03,508
6/5/19 17:03,503
6/5/19 17:03,509
6/5/19 17:03,502
6/5/19 17:03,506
6/5/19 17:03,507
6/5/19 17:03,501
6/5/19 17:03,508
6/5/19 17:03,504
6/5/19 17:03,507
6/5/19 17:03,507
6/5/19 17:03,504
6/5/19 17:03,509
6/5/19 17:03,503
6/5/19 17:03,509
6/5/19 17:03,507
6/5/19 17:03,504
6/5/19 17:03,544
6/5/19 17:03,541
6/5/19 17:03,494
6/5/19 17:03,487
6/5/19 17:03,490
6/5/19 17:03,506
6/5/19 17:03,505
6/5/19 17:03,501
6/5/19 17:03,502
6/5/19 17:03,499
6/5/19 17:03,508
6/5/19 17:03,504
6/5/19 17:03,508
6/5/19 17:03,508
6/5/19 17:03,505
6/5/19 17:03,510
6/5/19 17:03,504
6/5/19 17:03,508
6/5/19 17:03,506
6/5/19 17:03,503
6/5/19 17:03,510
6/5/19 17:03,503
6/5/19 17:03,508
6/5/19 17:03,505
6/5/19 17:03,506
6/5/19 17:03,512
6/5/19 17:03,503
6/5/19 17:03,506
6/5/19 17:03,504
6/5/19 17:03,507
6/5/19 17:03,514
6/5/19 17:03,506
6/5/19 17:03,511
6/5/19 17:03,509
6/5/19 17:03,509
6/5/19 17:03,513
6/5/19 17:03,506
6/5/19 17:03,511
6/5/19 17:03,507
6/5/19 17:03,507
6/5/19 17:03,511
6/5/19 17:03,505
6/5/19 17:03,510
6/5/19 17:03,507
6/5/19 17:03,505
6/5/19 17:03,512
6/5/19 17:03,505
6/5/19 17:03,510
6/5/19 17:03,506
6/5/19 17:03,507
6/5/19 17:03,510
6/5/19 17:03,504
6/5/19 17:03,509
6/5/19 17:03,505
6/5/19 17:03,507
6/5/19 17:03,509
6/5/19 17:03,503
6/5/19 17:03,510
6/5/19 17:03,505
6/5/19 17:03,503
6/5/19 17:03,507
6/5/19 17:03,502
6/5/19 17:03,508
6/5/19 17:03,504
6/5/19 17:03,505
6/5/19 17:03,510
6/5/19 17:03,504
6/5/19 17:03,510
6/5/19 17:03,506
6/5/19 17:03,506
6/5/19 17:03,506
6/5/19 17:03,511
6/5/19 17:03,545
6/5/19 17:03,525
6/5/19 17:03,489
6/5/19 17:03,490
6/5/19 17:03,490
6/5/19 17:03,506
6/5/19 17:03,504
6/5/19 17:03,504
6/5/19 17:03,502
6/5/19 17:03,497
6/5/19 17:03,507
6/5/19 17:03,504
6/5/19 17:03,508
6/5/19 17:03,510
6/5/19 17:03,505
6/5/19 17:03,509
6/5/19 17:03,505
6/5/19 17:03,506
6/5/19 17:03,509
6/5/19 17:03,504
6/5/19 17:03,508
6/5/19 17:03,505
6/5/19 17:03,507
6/5/19 17:03,508
6/5/19 17:03,504
6/5/19 17:03,509
6/5/19 17:03,504
6/5/19 17:03,510
6/5/19 17:03,509
6/5/19 17:03,507
6/5/19 17:03,512
6/5/19 17:03,506
6/5/19 17:03,508
6/5/19 17:03,510
6/5/19 17:03,508
6/5/19 17:03,510
6/5/19 17:03,505
6/5/19 17:03,509
6/5/19 17:03,510
6/5/19 17:03,505
6/5/19 17:03,511
6/5/19 17:03,504
6/5/19 17:03,510
6/5/19 17:03,508
6/5/19 17:03,505
6/5/19 17:03,510
6/5/19 17:03,505
6/5/19 17:03,509
6/5/19 17:03,507
6/5/19 17:03,502
6/5/19 17:03,509
6/5/19 17:03,506
6/5/19 17:03,510
6/5/19 17:03,509
6/5/19 17:03,506
6/5/19 17:03,510
6/5/19 17:03,502
6/5/19 17:03,508
6/5/19 17:03,505
6/5/19 17:03,505
6/5/19 17:03,510
6/5/19 17:03,502
6/5/19 17:03,508
6/5/19 17:03,506
6/5/19 17:03,503
6/5/19 17:03,510
6/5/19 17:03,504
6/5/19 17:03,509
6/5/19 17:03,506
6/5/19 17:03,505
6/5/19 17:03,510
6/5/19 17:03,505
6/5/19 17:03,544
6/5/19 17:03,534
6/5/19 17:03,488
6/5/19 17:03,493
6/5/19 17:03,491
6/5/19 17:03,499
6/5/19 17:03,500
6/5/19 17:03,502
6/5/19 17:03,508
6/5/19 17:03,508
6/5/19 17:03,512
6/5/19 17:03,506
6/5/19 17:03,502
6/5/19 17:03,506
6/5/19 17:03,503
6/5/19 17:03,507
6/5/19 17:03,506
6/5/19 17:03,507
6/5/19 17:03,508
6/5/19 17:03,503
6/5/19 17:03,508
6/5/19 17:03,506
6/5/19 17:03,506
6/5/19 17:03,509
6/5/19 17:03,504
6/5/19 17:03,508
6/5/19 17:03,509
6/5/19 17:03,508
6/5/19 17:03,511
6/5/19 17:03,505
6/5/19 17:03,513
6/5/19 17:03,503
6/5/19 17:03,505
6/5/19 17:03,513
6/5/19 17:03,504
6/5/19 17:03,512
6/5/19 17:03,509
6/5/19 17:03,509
6/5/19 17:03,513
6/5/19 17:03,505
6/5/19 17:03,512
6/5/19 17:03,506
6/5/19 17:03,508
6/5/19 17:03,509
6/5/19 17:03,505
6/5/19 17:03,507
6/5/19 17:03,506
6/5/19 17:03,507
6/5/19 17:03,508
6/5/19 17:03,505
6/5/19 17:03,510
6/5/19 17:03,506
6/5/19 17:03,508
6/5/19 17:03,508
6/5/19 17:03,506
6/5/19 17:03,509
6/5/19 17:03,503
6/5/19 17:03,506
6/5/19 17:03,508
6/5/19 17:03,502
6/5/19 17:03,508
6/5/19 17:03,503
6/5/19 17:03,506
6/5/19 17:03,509
6/5/19 17:03,505
6/5/19 17:03,511
6/5/19 17:03,503
6/5/19 17:03,507
6/5/19 17:03,509
6/5/19 17:03,504
6/5/19 17:03,509
6/5/19 17:03,508
6/5/19 17:03,539
6/5/19 17:03,532
6/5/19 17:03,487
6/5/19 17:03,493
6/5/19 17:03,492
6/5/19 17:03,502
6/5/19 17:03,507
6/5/19 17:03,506
6/5/19 17:03,507
6/5/19 17:03,499
6/5/19 17:03,506
6/5/19 17:12,505
6/5/19 17:12,507
6/5/19 17:12,505
6/5/19 17:12,511
6/5/19 17:12,504
6/5/19 17:12,511
6/5/19 17:12,507
6/5/19 17:12,507
6/5/19 17:12,509
6/5/19 17:12,505
6/5/19 17:12,509
6/5/19 17:12,505
6/5/19 17:12,505
6/5/19 17:12,511
6/5/19 17:12,502
6/5/19 17:12,508
6/5/19 17:12,506
6/5/19 17:12,506
6/5/19 17:12,510
6/5/19 17:12,501
6/5/19 17:12,509
6/5/19 17:12,501
6/5/19 17:12,505
6/5/19 17:12,510
6/5/19 17:12,503
6/5/19 17:12,511
6/5/19 17:12,504
6/5/19 17:12,507
6/5/19 17:12,513
6/5/19 17:12,504
6/5/19 17:12,511
6/5/19 17:12,539
6/5/19 17:12,536
6/5/19 17:12,492
6/5/19 17:12,485
6/5/19 17:12,498
6/5/19 17:12,498
6/5/19 17:12,504
6/5/19 17:12,508
6/5/19 17:12,502
6/5/19 17:12,507
6/5/19 17:12,505
6/5/19 17:12,503
6/5/19 17:12,506
6/5/19 17:12,502
6/5/19 17:12,508
6/5/19 17:12,504
6/5/19 17:12,507
6/5/19 17:12,508
6/5/19 17:12,505
6/5/19 17:12,511
6/5/19 17:12,504
6/5/19 17:12,508
6/5/19 17:12,509
6/5/19 17:12,504
6/5/19 17:12,511
6/5/19 17:12,506
6/5/19 17:12,508
6/5/19 17:12,509
6/5/19 17:12,504
6/5/19 17:12,511
6/5/19 17:12,505
6/5/19 17:12,509
6/5/19 17:12,511
6/5/19 17:12,506
6/5/19 17:12,512
6/5/19 17:12,505
6/5/19 17:12,510
6/5/19 17:12,509
6/5/19 17:12,504
6/5/19 17:12,513
6/5/19 17:12,506
6/5/19 17:12,511
6/5/19 17:12,508
6/5/19 17:12,505
6/5/19 17:12,513
6/5/19 17:12,504
6/5/19 17:12,509
6/5/19 17:12,508
6/5/19 17:12,505
6/5/19 17:12,512
6/5/19 17:12,503
6/5/19 17:12,509
6/5/19 17:12,509
6/5/19 17:12,504
6/5/19 17:12,513
6/5/19 17:12,502
6/5/19 17:12,507
6/5/19 17:12,506
6/5/19 17:12,503
6/5/19 17:12,510
6/5/19 17:12,500
6/5/19 17:12,507
6/5/19 17:12,507
6/5/19 17:12,505
6/5/19 17:12,509
6/5/19 17:12,500
6/5/19 17:12,508
6/5/19 17:12,507
6/5/19 17:12,505
6/5/19 17:12,510
6/5/19 17:12,505
6/5/19 17:12,510
6/5/19 17:12,508
6/5/19 17:12,506
6/5/19 17:12,547
6/5/19 17:12,537
6/5/19 17:12,494
6/5/19 17:12,486
6/5/19 17:12,493
6/5/19 17:12,507
6/5/19 17:12,499
6/5/19 17:12,505
6/5/19 17:12,506
6/5/19 17:12,501
6/5/19 17:12,506
6/5/19 17:12,500
6/5/19 17:12,510
6/5/19 17:12,507
6/5/19 17:12,504
6/5/19 17:12,511
6/5/19 17:12,504
6/5/19 17:12,509
6/5/19 17:12,504
6/5/19 17:12,505
6/5/19 17:12,509
6/5/19 17:12,504
6/5/19 17:12,510
6/5/19 17:12,506
6/5/19 17:12,506
6/5/19 17:12,509
6/5/19 17:12,501
6/5/19 17:12,510
6/5/19 17:12,505
6/5/19 17:12,507
6/5/19 17:12,511
6/5/19 17:12,504
6/5/19 17:12,510
6/5/19 17:12,507
6/5/19 17:12,509
6/5/19 17:12,511
6/5/19 17:12,505
6/5/19 17:12,513
6/5/19 17:12,509
6/5/19 17:12,510
6/5/19 17:12,510
6/5/19 17:12,504
6/5/19 17:12,509
6/5/19 17:12,502
6/5/19 17:12,508
6/5/19 17:12,511
6/5/19 17:12,508
6/5/19 17:12,515
6/5/19 17:12,506
6/5/19 17:12,508
6/5/19 17:12,509
6/5/19 17:12,503
6/5/19 17:12,511
6/5/19 17:12,504
6/5/19 17:12,507
6/5/19 17:12,508
6/5/19 17:12,503
6/5/19 17:12,509
6/5/19 17:12,502
6/5/19 17:12,508
6/5/19 17:12,507
6/5/19 17:12,503
6/5/19 17:12,509
6/5/19 17:12,502
6/5/19 17:12,506
6/5/19 17:12,508
6/5/19 17:12,503
6/5/19 17:12,510
6/5/19 17:12,503
6/5/19 17:12,509
6/5/19 17:12,508
6/5/19 17:12,502
6/5/19 17:12,512
6/5/19 17:12,509
6/5/19 17:12,539
6/5/19 17:12,522
6/5/19 17:12,484
6/5/19 17:12,494
6/5/19 17:12,492
6/5/19 17:12,508
6/5/19 17:12,511
6/5/19 17:12,503
6/5/19 17:12,505
6/5/19 17:12,499
6/5/19 17:12,508
6/5/19 17:12,506
6/5/19 17:12,503
6/5/19 17:12,511
6/5/19 17:12,503
6/5/19 17:12,510
6/5/19 17:12,505
6/5/19 17:12,502
6/5/19 17:12,508
6/5/19 17:12,502
6/5/19 17:12,508
6/5/19 17:12,504
6/5/19 17:12,502
6/5/19 17:12,508
6/5/19 17:12,503
6/5/19 17:12,507
6/5/19 17:12,507
6/5/19 17:12,507
6/5/19 17:12,513
6/5/19 17:12,505
6/5/19 17:12,510
6/5/19 17:12,508
6/5/19 17:12,507
6/5/19 17:12,513
6/5/19 17:12,504
6/5/19 17:12,513
6/5/19 17:12,507
6/5/19 17:12,507
6/5/19 17:12,513
6/5/19 17:12,504
6/5/19 17:12,514
6/5/19 17:12,506
6/5/19 17:12,508
6/5/19 17:12,511
6/5/19 17:12,503
6/5/19 17:12,510
6/5/19 17:12,507
6/5/19 17:12,507
6/5/19 17:12,511
6/5/19 17:12,503
6/5/19 17:12,509
6/5/19 17:12,505
6/5/19 17:12,506
6/5/19 17:12,509
6/5/19 17:12,505
6/5/19 17:12,510
6/5/19 17:12,504
6/5/19 17:12,506
6/5/19 17:12,508
6/5/19 17:12,503
6/5/19 17:12,509
6/5/19 17:12,502
6/5/19 17:12,504
6/5/19 17:12,509
6/5/19 17:12,503
6/5/19 17:12,512
6/5/19 17:12,505
6/5/19 17:12,505
6/5/19 17:12,507
6/5/19 17:12,502
6/5/19 17:12,509
6/5/19 17:12,504
6/5/19 17:12,508
6/5/19 17:12,543
6/5/19 17:12,535
6/5/19 17:12,494
6/5/19 17:12,486
6/5/19 17:12,496
6/5/19 17:12,502
6/5/19 17:12,498
6/5/19 17:12,505
6/5/19 17:12,499
6/5/19 17:12,506
6/5/19 17:12,507
6/5/19 17:12,504
6/5/19 17:12,514
6/5/19 17:12,505
6/5/19 17:12,508
6/5/19 17:12,510
6/5/19 17:12,504
6/5/19 17:12,510
6/5/19 17:12,502
6/5/19 17:12,507
6/5/19 17:12,507
6/5/19 17:12,503
6/5/19 17:12,511
6/5/19 17:12,501
6/5/19 17:12,506
6/5/19 17:12,508
6/5/19 17:12,505
6/5/19 17:12,511
6/5/19 17:12,505
6/5/19 17:12,509
6/5/19 17:12,508
6/5/19 17:12,505
6/5/19 17:12,513
6/5/19 17:12,507
6/5/19 17:12,510
6/5/19 17:12,509
6/5/19 17:12,504
6/5/19 17:12,515
6/5/19 17:12,506
6/5/19 17:12,511
6/5/19 17:12,508
6/5/19 17:12,505
6/5/19 17:12,512
6/5/19 17:12,504
6/5/19 17:12,508
6/5/19 17:12,506
6/5/19 17:12,507
6/5/19 17:12,510
6/5/19 17:12,504
6/5/19 17:12,508
6/5/19 17:12,507
6/5/19 17:12,505
6/5/19 17:12,511
6/5/19 17:12,505
6/5/19 17:12,510
6/5/19 17:12,506
6/5/19 17:12,505
6/5/19 17:12,509
6/5/19 17:12,503
6/5/19 17:12,508
6/5/19 17:12,505
6/5/19 17:12,504
6/5/19 17:12,506
6/5/19 17:12,500
6/5/19 17:12,509
6/5/19 17:12,506
6/5/19 17:12,505
6/5/19 17:12,511
6/5/19 17:12,502
6/5/19 17:12,513
6/5/19 17:12,506
6/5/19 17:12,506
6/5/19 17:12,512
6/5/19 17:12,536
6/5/19 17:12,532
6/5/19 17:12,490
6/5/19 17:12,488
6/5/19 17:12,498
6/5/19 17:12,499
6/5/19 17:12,507
6/5/19 17:12,500
6/5/19 17:12,500
6/5/19 17:12,507
6/5/19 17:12,503
6/5/19 17:12,510
6/5/19 17:12,505
6/5/19 17:12,509
6/5/19 17:12,511
6/5/19 17:12,503
6/5/19 17:12,510
6/5/19 17:12,504
6/5/19 17:12,505
6/5/19 17:12,507
6/5/19 17:12,501
6/5/19 17:12,509
6/5/19 17:12,506
6/5/19 17:12,506
6/5/19 17:12,507
6/5/19 17:12,504
6/5/19 17:12,511
6/5/19 17:12,503
6/5/19 17:12,507
6/5/19 17:12,510
6/5/19 17:12,503
6/5/19 17:12,511
6/5/19 17:12,507
6/5/19 17:12,510
6/5/19 17:12,510
6/5/19 17:12,506
6/5/19 17:12,511
6/5/19 17:12,506
6/5/19 17:12,510
6/5/19 17:12,510
6/5/19 17:12,505
6/5/19 17:12,512
6/5/19 17:12,504
6/5/19 17:12,508
6/5/19 17:12,509
6/5/19 17:12,504
6/5/19 17:12,512
6/5/19 17:12,506
6/5/19 17:12,508
6/5/19 17:12,508
6/5/19 17:12,503
6/5/19 17:12,511
6/5/19 17:12,504
6/5/19 17:12,510
6/5/19 17:12,506
6/5/19 17:12,503
6/5/19 17:12,511
6/5/19 17:12,502
6/5/19 17:12,508
6/5/19 17:12,507
6/5/19 17:12,503
6/5/19 17:12,509
6/5/19 17:12,502
6/5/19 17:12,508
6/5/19 17:12,507
6/5/19 17:12,503
6/5/19 17:12,510
6/5/19 17:12,502
6/5/19 17:12,508
6/5/19 17:12,507
6/5/19 17:12,505
6/5/19 17:12,511
6/5/19 17:12,502
6/5/19 17:12,533
6/5/19 17:12,540
6/5/19 17:12,496
6/5/19 17:12,492
6/5/19 17:12,484
6/5/19 17:12,502
6/5/19 17:12,503
6/5/19 17:12,505
6/5/19 17:12,507
6/5/19 17:12,497
6/5/19 17:12,506
6/5/19 17:12,506
6/5/19 17:12,508
6/5/19 17:12,511
6/5/19 17:12,503
6/5/19 17:12,510
6/5/19 17:12,506
6/5/19 17:12,506
6/5/19 17:12,510
6/5/19 17:12,501
6/5/19 17:12,507
6/5/19 17:12,506
6/5/19 17:12,504
6/5/19 17:12,508
6/5/19 17:12,502
6/5/19 17:12,510
6/5/19 17:12,507
6/5/19 17:12,506
6/5/19 17:12,511
6/5/19 17:12,505
6/5/19 17:12,511
6/5/19 17:12,506
6/5/19 17:12,508
6/5/19 17:12,511
6/5/19 17:12,503
6/5/19 17:12,513
6/5/19 17:12,508
6/5/19 17:12,508
6/5/19 17:12,513
6/5/19 17:12,505
6/5/19 17:12,512
6/5/19 17:12,503
6/5/19 17:12,506
6/5/19 17:12,510
6/5/19 17:12,505
6/5/19 17:12,512
6/5/19 17:12,505
6/5/19 17:12,506
6/5/19 17:12,510
6/5/19 17:12,503
6/5/19 17:12,511
6/5/19 17:12,504
6/5/19 17:12,504
6/5/19 17:12,508
6/5/19 17:12,504
6/5/19 17:12,510
6/5/19 17:12,505
6/5/19 17:12,509
6/5/19 17:12,509
6/5/19 17:12,502
6/5/19 17:12,510
6/5/19 17:12,504
6/5/19 17:12,506
6/5/19 17:12,508
6/5/19 17:12,504
6/5/19 17:12,509
6/5/19 17:12,500
6/5/19 17:12,508
6/5/19 17:12,509
6/5/19 17:12,503
6/5/19 17:12,510
6/5/19 17:12,503
6/5/19 17:12,505
6/5/19 17:12,507
6/5/19 17:12,506
6/5/19 17:12,546
6/5/19 17:12,528
6/5/19 17:12,491
6/5/19 17:12,490
6/5/19 17:12,492
6/5/19 17:12,507
6/5/19 17:12,507
6/5/19 17:12,514
6/5/19 17:12,503
6/5/19 17:12,497
6/5/19 17:12,505
6/5/19 17:12,501
6/5/19 17:12,506
6/5/19 17:12,508
6/5/19 17:12,503
6/5/19 17:12,509
6/5/19 17:12,503
6/5/19 17:12,507
6/5/19 17:12,506
6/5/19 17:12,502
6/5/19 17:12,509
6/5/19 17:12,502
6/5/19 17:12,508
6/5/19 17:12,505
6/5/19 17:12,504
6/5/19 17:12,509
6/5/19 17:12,503
6/5/19 17:12,509
6/5/19 17:12,508
6/5/19 17:12,505
6/5/19 17:12,513
6/5/19 17:12,505
6/5/19 17:12,509
6/5/19 17:12,508
6/5/19 17:12,507
6/5/19 17:12,513
6/5/19 17:12,505
6/5/19 17:12,511
6/5/19 17:12,508
6/5/19 17:12,506
6/5/19 17:12,511
6/5/19 17:12,503
6/5/19 17:12,510
6/5/19 17:12,507
6/5/19 17:12,506
6/5/19 17:12,511
6/5/19 17:12,503
6/5/19 17:12,511
6/5/19 17:12,506
6/5/19 17:12,507
6/5/19 17:12,509
6/5/19 17:12,504
6/5/19 17:12,510
6/5/19 17:12,502
6/5/19 17:12,506
6/5/19 17:12,510
6/5/19 17:12,504
6/5/19 17:12,511
6/5/19 17:12,506
6/5/19 17:12,505
6/5/19 17:12,510
6/5/19 17:12,503
6/5/19 17:12,510
6/5/19 17:12,506
6/5/19 17:12,505
6/5/19 17:12,508
6/5/19 17:12,503
6/5/19 17:12,510
6/5/19 17:12,505
6/5/19 17:12,505
6/5/19 17:12,509
6/5/19 17:12,503
6/5/19 17:12,511
6/5/19 17:12,535
6/5/19 17:12,545
6/5/19 17:12,497
6/5/19 17:12,483
6/5/19 17:12,495
6/5/19 17:12,500
6/5/19 17:12,498
6/5/19 17:12,501
6/5/19 17:12,499
6/5/19 17:12,509
6/5/19 17:12,503
6/5/19 17:12,507
6/5/19 17:12,510
6/5/19 17:12,505
6/5/19 17:12,513
6/5/19 17:12,506
6/5/19 17:12,507
6/5/19 17:12,510
6/5/19 17:12,502
6/5/19 17:12,509
6/5/19 17:12,502
6/5/19 17:12,504
6/5/19 17:12,505
6/5/19 17:12,501
6/5/19 17:12,509
6/5/19 17:12,503
6/5/19 17:12,509
6/5/19 17:12,509
6/5/19 17:12,503
6/5/19 17:12,511
6/5/19 17:12,505
6/5/19 17:12,510
6/5/19 17:12,508
6/5/19 17:12,506
6/5/19 17:12,512
6/5/19 17:12,508
6/5/19 17:12,509
6/5/19 17:12,509
6/5/19 17:12,507
6/5/19 17:12,513
6/5/19 17:12,505
6/5/19 17:12,511
6/5/19 17:12,507
6/5/19 17:12,505
6/5/19 17:12,511
6/5/19 17:12,506
6/5/19 17:12,510
6/5/19 17:12,508
6/5/19 17:12,504
6/5/19 17:12,511
6/5/19 17:12,504
6/5/19 17:12,510
6/5/19 17:12,509
6/5/19 17:12,505
6/5/19 17:21,506
6/5/19 17:21,505
6/5/19 17:21,513
6/5/19 17:21,506
6/5/19 17:21,509
6/5/19 17:21,508
6/5/19 17:21,505
6/5/19 17:21,511
6/5/19 17:21,505
6/5/19 17:21,509
6/5/19 17:21,507
6/5/19 17:21,504
6/5/19 17:21,510
6/5/19 17:21,505
6/5/19 17:21,506
6/5/19 17:21,508
6/5/19 17:21,503
6/5/19 17:21,511
6/5/19 17:21,504
6/5/19 17:21,504
6/5/19 17:21,506
6/5/19 17:21,503
6/5/19 17:21,512
6/5/19 17:21,504
6/5/19 17:21,507
6/5/19 17:21,509
6/5/19 17:21,503
6/5/19 17:21,511
6/5/19 17:21,505
6/5/19 17:21,510
6/5/19 17:21,507
6/5/19 17:21,507
6/5/19 17:21,542
6/5/19 17:21,532
6/5/19 17:21,491
6/5/19 17:21,489
6/5/19 17:21,494
6/5/19 17:21,506
6/5/19 17:21,501
6/5/19 17:21,502
6/5/19 17:21,499
6/5/19 17:21,503
6/5/19 17:21,510
6/5/19 17:21,505
6/5/19 17:21,509
6/5/19 17:21,508
6/5/19 17:21,506
6/5/19 17:21,509
6/5/19 17:21,505
6/5/19 17:21,507
6/5/19 17:21,505
6/5/19 17:21,504
6/5/19 17:21,508
6/5/19 17:21,500
6/5/19 17:21,509
6/5/19 17:21,506
6/5/19 17:21,506
6/5/19 17:21,509
6/5/19 17:21,505
6/5/19 17:21,509
6/5/19 17:21,506
6/5/19 17:21,505
6/5/19 17:21,512
6/5/19 17:21,506
6/5/19 17:21,513
6/5/19 17:21,507
6/5/19 17:21,507
6/5/19 17:21,511
6/5/19 17:21,506
6/5/19 17:21,513
6/5/19 17:21,508
6/5/19 17:21,508
6/5/19 17:21,511
6/5/19 17:21,506
6/5/19 17:21,510
6/5/19 17:21,507
6/5/19 17:21,507
6/5/19 17:21,510
6/5/19 17:21,505
6/5/19 17:21,510
6/5/19 17:21,507
6/5/19 17:21,507
6/5/19 17:21,510
6/5/19 17:21,504
6/5/19 17:21,509
6/5/19 17:21,506
6/5/19 17:21,507
6/5/19 17:21,509
6/5/19 17:21,503
6/5/19 17:21,509
6/5/19 17:21,505
6/5/19 17:21,506
6/5/19 17:21,507
6/5/19 17:21,502
6/5/19 17:21,509
6/5/19 17:21,503
6/5/19 17:21,505
6/5/19 17:21,507
6/5/19 17:21,503
6/5/19 17:21,510
6/5/19 17:21,503
6/5/19 17:21,507
6/5/19 17:21,508
6/5/19 17:21,505
6/5/19 17:21,506
6/5/19 17:21,501
6/5/19 17:21,535
6/5/19 17:21,540
6/5/19 17:21,498
6/5/19 17:21,493
6/5/19 17:21,491
6/5/19 17:21,501
6/5/19 17:21,510
6/5/19 17:21,499
6/5/19 17:21,504
6/5/19 17:21,498
6/5/19 17:21,505
6/5/19 17:21,507
6/5/19 17:21,505
6/5/19 17:21,510
6/5/19 17:21,505
6/5/19 17:21,507
6/5/19 17:21,508
6/5/19 17:21,505
6/5/19 17:21,509
6/5/19 17:21,503
6/5/19 17:21,507
6/5/19 17:21,506
6/5/19 17:21,504
6/5/19 17:21,510
6/5/19 17:21,503
6/5/19 17:21,508
6/5/19 17:21,507
6/5/19 17:21,505
6/5/19 17:21,512
6/5/19 17:21,505
6/5/19 17:21,509
6/5/19 17:21,509
6/5/19 17:21,507
6/5/19 17:21,512
6/5/19 17:21,506
6/5/19 17:21,509
6/5/19 17:21,509
6/5/19 17:21,505
6/5/19 17:21,512
6/5/19 17:21,505
6/5/19 17:21,510
6/5/19 17:21,507
6/5/19 17:21,505
6/5/19 17:21,508
6/5/19 17:21,502
6/5/19 17:21,509
6/5/19 17:21,508
6/5/19 17:21,507
6/5/19 17:21,514
6/5/19 17:21,505
6/5/19 17:21,509
6/5/19 17:21,506
6/5/19 17:21,506
6/5/19 17:21,511
6/5/19 17:21,504
6/5/19 17:21,509
6/5/19 17:21,507
6/5/19 17:21,506
6/5/19 17:21,509
6/5/19 17:21,503
6/5/19 17:21,508
6/5/19 17:21,505
6/5/19 17:21,505
6/5/19 17:21,507
6/5/19 17:21,502
6/5/19 17:21,507
6/5/19 17:21,503
6/5/19 17:21,504
6/5/19 17:21,510
6/5/19 17:21,503
6/5/19 17:21,508
6/5/19 17:21,506
6/5/19 17:21,506
6/5/19 17:21,508
6/5/19 17:21,500
6/5/19 17:21,532
6/5/19 17:21,534
6/5/19 17:21,503
6/5/19 17:21,491
6/5/19 17:21,494
6/5/19 17:21,504
6/5/19 17:21,499
6/5/19 17:21,501
6/5/19 17:21,509
6/5/19 17:21,501
6/5/19 17:21,503
6/5/19 17:21,502
6/5/19 17:21,506
6/5/19 17:21,508
6/5/19 17:21,504
6/5/19 17:21,510
6/5/19 17:21,505
6/5/19 17:21,508
6/5/19 17:21,506
6/5/19 17:21,504
6/5/19 17:21,509
6/5/19 17:21,504
6/5/19 17:21,506
6/5/19 17:21,508
6/5/19 17:21,503
6/5/19 17:21,510
6/5/19 17:21,505
6/5/19 17:21,508
6/5/19 17:21,509
6/5/19 17:21,506
6/5/19 17:21,514
6/5/19 17:21,505
6/5/19 17:21,508
6/5/19 17:21,510
6/5/19 17:21,505
6/5/19 17:21,511
6/5/19 17:21,505
6/5/19 17:21,508
6/5/19 17:21,505
6/5/19 17:21,507
6/5/19 17:21,514
6/5/19 17:21,505
6/5/19 17:21,510
6/5/19 17:21,509
6/5/19 17:21,506
6/5/19 17:21,511
6/5/19 17:21,506
6/5/19 17:21,510
6/5/19 17:21,509
6/5/19 17:21,506
6/5/19 17:21,509
6/5/19 17:21,505
6/5/19 17:21,509
6/5/19 17:21,507
6/5/19 17:21,505
6/5/19 17:21,511
6/5/19 17:21,503
6/5/19 17:21,508
6/5/19 17:21,507
6/5/19 17:21,505
6/5/19 17:21,509
6/5/19 17:21,501
6/5/19 17:21,508
6/5/19 17:21,504
6/5/19 17:21,504
6/5/19 17:21,510
6/5/19 17:21,501
6/5/19 17:21,509
6/5/19 17:21,505
6/5/19 17:21,504
6/5/19 17:21,510
6/5/19 17:21,503
6/5/19 17:21,508
6/5/19 17:21,506
6/5/19 17:21,536
6/5/19 17:21,544
6/5/19 17:21,490
6/5/19 17:21,491
6/5/19 17:21,493
6/5/19 17:21,499
6/5/19 17:21,503
6/5/19 17:21,495
6/5/19 17:21,504
6/5/19 17:21,506
6/5/19 17:21,505
6/5/19 17:21,507
6/5/19 17:21,504
6/5/19 17:21,510
6/5/19 17:21,506
6/5/19 17:21,507
6/5/19 17:21,509
6/5/19 17:21,504
6/5/19 17:21,510
6/5/19 17:21,505
6/5/19 17:21,506
6/5/19 17:21,509
6/5/19 17:21,505
6/5/19 17:21,509
6/5/19 17:21,505
6/5/19 17:21,506
6/5/19 17:21,511
6/5/19 17:21,500
6/5/19 17:21,512
6/5/19 17:21,507
6/5/19 17:21,512
6/5/19 17:21,511
6/5/19 17:21,507
6/5/19 17:21,513
6/5/19 17:21,507
6/5/19 17:21,509
6/5/19 17:21,510
6/5/19 17:21,506
6/5/19 17:21,511
6/5/19 17:21,506
6/5/19 17:21,508
6/5/19 17:21,508
6/5/19 17:21,506
6/5/19 17:21,512
6/5/19 17:21,505
6/5/19 17:21,508
6/5/19 17:21,509
6/5/19 17:21,504
6/5/19 17:21,509
6/5/19 17:21,505
6/5/19 17:21,508
6/5/19 17:21,508
6/5/19 17:21,505
6/5/19 17:21,509
6/5/19 17:21,503
6/5/19 17:21,508
6/5/19 17:21,506
6/5/19 17:21,505
6/5/19 17:21,511
6/5/19 17:21,501
6/5/19 17:21,508
6/5/19 17:21,506
6/5/19 17:21,502
6/5/19 17:21,509
6/5/19 17:21,502
6/5/19 17:21,509
6/5/19 17:21,507
6/5/19 17:21,505
6/5/19 17:21,511
6/5/19 17:21,503
6/5/19 17:21,509
6/5/19 17:21,506
6/5/19 17:21,505
6/5/19 17:21,511
6/5/19 17:21,532
6/5/19 17:21,539
6/5/19 17:21,496
6/5/19 17:21,487
6/5/19 17:21,495
6/5/19 17:21,502
6/5/19 17:21,506
6/5/19 17:21,503
6/5/19 17:21,500
6/5/19 17:21,508
6/5/19 17:21,508
6/5/19 17:21,505
6/5/19 17:21,501
6/5/19 17:21,503
6/5/19 17:21,508
6/5/19 17:21,502
6/5/19 17:21,509
6/5/19 17:21,506
6/5/19 17:21,507
6/5/19 17:21,510
6/5/19 17:21,503
6/5/19 17:21,510
6/5/19 17:21,505
6/5/19 17:21,507
6/5/19 17:21,508
6/5/19 17:21,503
6/5/19 17:21,510
6/5/19 17:21,506
6/5/19 17:21,507
6/5/19 17:21,509
6/5/19 17:21,506
6/5/19 17:21,514
6/5/19 17:21,507
6/5/19 17:21,509
6/5/19 17:21,511
6/5/19 17:21,507
6/5/19 17:21,511
6/5/19 17:21,507
6/5/19 17:21,508
6/5/19 17:21,513
6/5/19 17:21,504
6/5/19 17:21,511
6/5/19 17:21,505
6/5/19 17:21,507
6/5/19 17:21,508
6/5/19 17:21,503
6/5/19 17:21,512
6/5/19 17:21,506
6/5/19 17:21,508
6/5/19 17:21,509
6/5/19 17:21,504
6/5/19 17:21,511
6/5/19 17:21,505
6/5/19 17:21,506
6/5/19 17:21,508
6/5/19 17:21,504
6/5/19 17:21,510
6/5/19 17:21,503
6/5/19 17:21,506
6/5/19 17:21,507
6/5/19 17:21,503
6/5/19 17:21,510
6/5/19 17:21,504
6/5/19 17:21,506
6/5/19 17:21,507
6/5/19 17:21,503
6/5/19 17:21,510
6/5/19 17:21,500
6/5/19 17:21,506
6/5/19 17:21,509
6/5/19 17:21,504
6/5/19 17:21,509
6/5/19 17:21,505
6/5/19 17:21,509
6/5/19 17:21,517
6/5/19 17:21,535
6/5/19 17:21,522
6/5/19 17:21,484
6/5/19 17:21,490
6/5/19 17:21,501
6/5/19 17:21,503
6/5/19 17:21,505
6/5/19 17:21,501
6/5/19 17:21,502
6/5/19 17:21,503
6/5/19 17:21,503
6/5/19 17:21,509
6/5/19 17:21,503
6/5/19 17:21,511
6/5/19 17:21,508
6/5/19 17:21,505
6/5/19 17:21,510
6/5/19 17:21,503
6/5/19 17:21,508
6/5/19 17:21,502
6/5/19 17:21,505
6/5/19 17:21,508
6/5/19 17:21,502
6/5/19 17:21,507
6/5/19 17:21,507
6/5/19 17:21,506
6/5/19 17:21,510
6/5/19 17:21,504
6/5/19 17:21,512
6/5/19 17:21,507
6/5/19 17:21,508
6/5/19 17:21,511
6/5/19 17:21,504
6/5/19 17:21,511
6/5/19 17:21,507
6/5/19 17:21,507
6/5/19 17:21,513
6/5/19 17:21,505
6/5/19 17:21,511
6/5/19 17:21,506
6/5/19 17:21,506
6/5/19 17:21,510
6/5/19 17:21,504
6/5/19 17:21,509
6/5/19 17:21,507
6/5/19 17:21,508
6/5/19 17:21,511
6/5/19 17:21,503
6/5/19 17:21,507
6/5/19 17:21,503
6/5/19 17:21,508
6/5/19 17:21,513
6/5/19 17:21,505
6/5/19 17:21,510
6/5/19 17:21,506
6/5/19 17:21,506
6/5/19 17:21,509
6/5/19 17:21,503
6/5/19 17:21,510
6/5/19 17:21,505
6/5/19 17:21,506
6/5/19 17:21,508
6/5/19 17:21,502
6/5/19 17:21,508
6/5/19 17:21,504
6/5/19 17:21,508
6/5/19 17:21,508
6/5/19 17:21,504
6/5/19 17:21,509
6/5/19 17:21,504
6/5/19 17:21,506
6/5/19 17:21,508
6/5/19 17:21,505
6/5/19 17:21,538
6/5/19 17:21,535
6/5/19 17:21,498
6/5/19 17:21,490
6/5/19 17:21,490
6/5/19 17:21,501
6/5/19 17:21,496
6/5/19 17:21,503
6/5/19 17:21,507
6/5/19 17:21,505
6/5/19 17:21,511
6/5/19 17:21,506
6/5/19 17:21,507
6/5/19 17:21,510
6/5/19 17:21,503
6/5/19 17:21,509
6/5/19 17:21,502
6/5/19 17:21,505
6/5/19 17:21,507
6/5/19 17:21,502
6/5/19 17:21,508
6/5/19 17:21,502
6/5/19 17:21,506
6/5/19 17:21,504
6/5/19 17:21,504
6/5/19 17:21,511
6/5/19 17:21,503
6/5/19 17:21,509
6/5/19 17:21,508
6/5/19 17:21,507
6/5/19 17:21,513
6/5/19 17:21,506
6/5/19 17:21,510
6/5/19 17:21,510
6/5/19 17:21,507
6/5/19 17:21,511
6/5/19 17:21,505
6/5/19 17:21,509
6/5/19 17:21,507
6/5/19 17:21,505
6/5/19 17:21,511
6/5/19 17:21,505
6/5/19 17:21,511
6/5/19 17:21,509
6/5/19 17:21,506
6/5/19 17:21,510
6/5/19 17:21,504
6/5/19 17:21,510
6/5/19 17:21,508
6/5/19 17:21,507
6/5/19 17:21,509
6/5/19 17:21,502
6/5/19 17:21,509
6/5/19 17:21,507
6/5/19 17:21,506
6/5/19 17:21,512
6/5/19 17:21,504
6/5/19 17:21,508
6/5/19 17:21,505
6/5/19 17:21,504
6/5/19 17:21,508
6/5/19 17:21,503
6/5/19 17:21,508
6/5/19 17:21,502
6/5/19 17:21,506
6/5/19 17:21,505
6/5/19 17:21,500
6/5/19 17:21,511
6/5/19 17:21,507
6/5/19 17:21,507
6/5/19 17:21,511
6/5/19 17:21,505
6/5/19 17:21,541
6/5/19 17:21,537
6/5/19 17:21,493
6/5/19 17:21,492
6/5/19 17:21,493
6/5/19 17:21,505
6/5/19 17:21,496
6/5/19 17:21,501
6/5/19 17:21,509
6/5/19 17:21,503
6/5/19 17:21,506
6/5/19 17:21,502
6/5/19 17:21,506
6/5/19 17:21,510
6/5/19 17:21,506
6/5/19 17:21,510
6/5/19 17:21,499
6/5/19 17:21,508
6/5/19 17:21,508
6/5/19 17:21,504
6/5/19 17:21,508
6/5/19 17:21,504
6/5/19 17:21,506
6/5/19 17:21,507
6/5/19 17:21,505
6/5/19 17:21,508
6/5/19 17:21,504
6/5/19 17:21,508
6/5/19 17:21,510
6/5/19 17:21,506
6/5/19 17:21,513
6/5/19 17:21,507
6/5/19 17:21,509
6/5/19 17:21,506
6/5/19 17:21,504
6/5/19 17:21,513
6/5/19 17:21,507
6/5/19 17:21,508
6/5/19 17:21,509
6/5/19 17:21,506
6/5/19 17:21,513
6/5/19 17:21,505
6/5/19 17:21,508
6/5/19 17:21,509
6/5/19 17:21,504
6/5/19 17:21,513
6/5/19 17:21,504
6/5/19 17:21,510
6/5/19 17:21,508
6/5/19 17:21,506
6/5/19 17:21,511
6/5/19 17:30,508
6/5/19 17:30,509
6/5/19 17:30,507
6/5/19 17:30,510
6/5/19 17:30,505
6/5/19 17:30,509
6/5/19 17:30,508
6/5/19 17:30,505
6/5/19 17:30,506
6/5/19 17:30,506
6/5/19 17:30,511
6/5/19 17:30,510
6/5/19 17:30,506
6/5/19 17:30,510
6/5/19 17:30,504
6/5/19 17:30,510
6/5/19 17:30,508
6/5/19 17:30,508
6/5/19 17:30,510
6/5/19 17:30,503
6/5/19 17:30,509
6/5/19 17:30,507
6/5/19 17:30,505
6/5/19 17:30,510
6/5/19 17:30,505
6/5/19 17:30,509
6/5/19 17:30,506
6/5/19 17:30,505
6/5/19 17:30,509
6/5/19 17:30,501
6/5/19 17:30,511
6/5/19 17:30,504
6/5/19 17:30,504
6/5/19 17:30,507
6/5/19 17:30,501
6/5/19 17:30,508
6/5/19 17:30,505
6/5/19 17:30,504
6/5/19 17:30,510
6/5/19 17:30,503
6/5/19 17:30,524
6/5/19 17:30,535
6/5/19 17:30,508
6/5/19 17:30,493
6/5/19 17:30,490
6/5/19 17:30,502
6/5/19 17:30,500
6/5/19 17:30,502
6/5/19 17:30,503
6/5/19 17:30,498
6/5/19 17:30,509
6/5/19 17:30,507
6/5/19 17:30,508
6/5/19 17:30,511
6/5/19 17:30,505
6/5/19 17:30,512
6/5/19 17:30,506
6/5/19 17:30,507
6/5/19 17:30,508
6/5/19 17:30,503
6/5/19 17:30,508
6/5/19 17:30,505
6/5/19 17:30,504
6/5/19 17:30,506
6/5/19 17:30,503
6/5/19 17:30,508
6/5/19 17:30,503
6/5/19 17:30,507
6/5/19 17:30,510
6/5/19 17:30,504
6/5/19 17:30,510
6/5/19 17:30,507
6/5/19 17:30,510
6/5/19 17:30,511
6/5/19 17:30,507
6/5/19 17:30,514
6/5/19 17:30,506
6/5/19 17:30,503
6/5/19 17:30,509
6/5/19 17:30,506
6/5/19 17:30,512
6/5/19 17:30,507
6/5/19 17:30,509
6/5/19 17:30,510
6/5/19 17:30,506
6/5/19 17:30,513
6/5/19 17:30,504
6/5/19 17:30,511
6/5/19 17:30,510
6/5/19 17:30,505
6/5/19 17:30,510
6/5/19 17:30,505
6/5/19 17:30,508
6/5/19 17:30,507
6/5/19 17:30,504
6/5/19 17:30,510
6/5/19 17:30,504
6/5/19 17:30,509
6/5/19 17:30,508
6/5/19 17:30,503
6/5/19 17:30,510
6/5/19 17:30,504
6/5/19 17:30,507
6/5/19 17:30,506
6/5/19 17:30,503
6/5/19 17:30,509
6/5/19 17:30,502
6/5/19 17:30,508
6/5/19 17:30,500
6/5/19 17:30,506
6/5/19 17:30,511
6/5/19 17:30,505
6/5/19 17:30,510
6/5/19 17:30,509
6/5/19 17:30,506
6/5/19 17:30,533
6/5/19 17:30,533
6/5/19 17:30,502
6/5/19 17:30,489
6/5/19 17:30,492
6/5/19 17:30,500
6/5/19 17:30,498
6/5/19 17:30,506
6/5/19 17:30,507
6/5/19 17:30,502
6/5/19 17:30,506
6/5/19 17:30,502
6/5/19 17:30,508
6/5/19 17:30,508
6/5/19 17:30,505
6/5/19 17:30,511
6/5/19 17:30,507
6/5/19 17:30,505
6/5/19 17:30,506
6/5/19 17:30,506
6/5/19 17:30,508
6/5/19 17:30,506
6/5/19 17:30,508
6/5/19 17:30,506
6/5/19 17:30,505
6/5/19 17:30,509
6/5/19 17:30,503
6/5/19 17:30,510
6/5/19 17:30,506
6/5/19 17:30,508
6/5/19 17:30,509
6/5/19 17:30,504
6/5/19 17:30,510
6/5/19 17:30,507
6/5/19 17:30,508
6/5/19 17:30,510
6/5/19 17:30,505
6/5/19 17:30,511
6/5/19 17:30,507
6/5/19 17:30,507
6/5/19 17:30,511
6/5/19 17:30,505
6/5/19 17:30,510
6/5/19 17:30,505
6/5/19 17:30,507
6/5/19 17:30,510
6/5/19 17:30,507
6/5/19 17:30,510
6/5/19 17:30,503
6/5/19 17:30,511
6/5/19 17:30,509
6/5/19 17:30,503
6/5/19 17:30,512
6/5/19 17:30,507
6/5/19 17:30,508
6/5/19 17:30,510
6/5/19 17:30,503
6/5/19 17:30,507
6/5/19 17:30,505
6/5/19 17:30,507
6/5/19 17:30,509
6/5/19 17:30,503
6/5/19 17:30,509
6/5/19 17:30,504
6/5/19 17:30,507
6/5/19 17:30,507
6/5/19 17:30,503
6/5/19 17:30,509
6/5/19 17:30,504
6/5/19 17:30,506
6/5/19 17:30,507
6/5/19 17:30,504
6/5/19 17:30,510
6/5/19 17:30,506
6/5/19 17:30,540
6/5/19 17:30,543
6/5/19 17:30,488
6/5/19 17:30,492
6/5/19 17:30,494
6/5/19 17:30,502
6/5/19 17:30,499
6/5/19 17:30,496
6/5/19 17:30,508
6/5/19 17:30,501
6/5/19 17:30,508
6/5/19 17:30,511
6/5/19 17:30,509
6/5/19 17:30,513
6/5/19 17:30,506
6/5/19 17:30,510
6/5/19 17:30,506
6/5/19 17:30,503
6/5/19 17:30,510
6/5/19 17:30,502
6/5/19 17:30,507
6/5/19 17:30,505
6/5/19 17:30,503
6/5/19 17:30,509
6/5/19 17:30,503
6/5/19 17:30,508
6/5/19 17:30,508
6/5/19 17:30,505
6/5/19 17:30,509
6/5/19 17:30,504
6/5/19 17:30,510
6/5/19 17:30,509
6/5/19 17:30,506
6/5/19 17:30,512
6/5/19 17:30,506
6/5/19 17:30,510
6/5/19 17:30,508
6/5/19 17:30,506
6/5/19 17:30,511
6/5/19 17:30,506
6/5/19 17:30,509
6/5/19 17:30,508
6/5/19 17:30,507
6/5/19 17:30,510
6/5/19 17:30,503
6/5/19 17:30,511
6/5/19 17:30,505
6/5/19 17:30,507
6/5/19 17:30,510
6/5/19 17:30,503
6/5/19 17:30,511
6/5/19 17:30,508
6/5/19 17:30,505
6/5/19 17:30,508
6/5/19 17:30,502
6/5/19 17:30,511
6/5/19 17:30,507
6/5/19 17:30,507
6/5/19 17:30,510
6/5/19 17:30,503
6/5/19 17:30,509
6/5/19 17:30,505
6/5/19 17:30,507
6/5/19 17:30,507
6/5/19 17:30,503
6/5/19 17:30,509
6/5/19 17:30,506
6/5/19 17:30,506
6/5/19 17:30,507
6/5/19 17:30,503
6/5/19 17:30,511
6/5/19 17:30,505
6/5/19 17:30,532
6/5/19 17:30,536
6/5/19 17:30,494
6/5/19 17:30,489
6/5/19 17:30,491
6/5/19 17:30,503
6/5/19 17:30,505
6/5/19 17:30,498
6/5/19 17:30,509
6/5/19 17:30,507
6/5/19 17:30,501
6/5/19 17:30,508
6/5/19 17:30,505
6/5/19 17:30,513
6/5/19 17:30,506
6/5/19 17:30,507
6/5/19 17:30,511
6/5/19 17:30,503
6/5/19 17:30,509
6/5/19 17:30,504
6/5/19 17:30,505
6/5/19 17:30,507
6/5/19 17:30,505
6/5/19 17:30,508
6/5/19 17:30,504
6/5/19 17:30,507
6/5/19 17:30,507
6/5/19 17:30,504
6/5/19 17:30,510
6/5/19 17:30,504
6/5/19 17:30,508
6/5/19 17:30,510
6/5/19 17:30,504
6/5/19 17:30,510
6/5/19 17:30,504
6/5/19 17:30,513
6/5/19 17:30,511
6/5/19 17:30,508
6/5/19 17:30,512
6/5/19 17:30,505
6/5/19 17:30,511
6/5/19 17:30,509
6/5/19 17:30,507
6/5/19 17:30,510
6/5/19 17:30,505
6/5/19 17:30,509
6/5/19 17:30,506
6/5/19 17:30,504
6/5/19 17:30,510
6/5/19 17:30,503
6/5/19 17:30,509
6/5/19 17:30,507
6/5/19 17:30,505
6/5/19 17:30,510
6/5/19 17:30,505
6/5/19 17:30,509
6/5/19 17:30,506
6/5/19 17:30,504
6/5/19 17:30,510
6/5/19 17:30,503
6/5/19 17:30,506
6/5/19 17:30,506
6/5/19 17:30,503
6/5/19 17:30,509
6/5/19 17:30,504
6/5/19 17:30,508
6/5/19 17:30,501
6/5/19 17:30,503
6/5/19 17:30,511
6/5/19 17:30,505
6/5/19 17:30,509
6/5/19 17:30,507
6/5/19 17:30,506
6/5/19 17:30,509
6/5/19 17:30,526
6/5/19 17:30,538
6/5/19 17:30,500
6/5/19 17:30,487
6/5/19 17:30,496
6/5/19 17:30,499
6/5/19 17:30,505
6/5/19 17:30,505
6/5/19 17:30,502
6/5/19 17:30,505
6/5/19 17:30,500
6/5/19 17:30,509
6/5/19 17:30,505
6/5/19 17:30,507
6/5/19 17:30,510
6/5/19 17:30,503
6/5/19 17:30,510
6/5/19 17:30,502
6/5/19 17:30,503
6/5/19 17:30,509
6/5/19 17:30,503
6/5/19 17:30,509
6/5/19 17:30,506
6/5/19 17:30,507
6/5/19 17:30,510
6/5/19 17:30,504
6/5/19 17:30,510
6/5/19 17:30,506
6/5/19 17:30,509
6/5/19 17:30,509
6/5/19 17:30,503
6/5/19 17:30,510
6/5/19 17:30,507
6/5/19 17:30,509
6/5/19 17:30,511
6/5/19 17:30,506
6/5/19 17:30,512
6/5/19 17:30,505
6/5/19 17:30,507
6/5/19 17:30,510
6/5/19 17:30,504
6/5/19 17:30,511
6/5/19 17:30,506
6/5/19 17:30,508
6/5/19 17:30,509
6/5/19 17:30,503
6/5/19 17:30,511
6/5/19 17:30,505
6/5/19 17:30,507
6/5/19 17:30,505
6/5/19 17:30,507
6/5/19 17:30,511
6/5/19 17:30,506
6/5/19 17:30,508
6/5/19 17:30,509
6/5/19 17:30,505
6/5/19 17:30,511
6/5/19 17:30,506
6/5/19 17:30,508
6/5/19 17:30,508
6/5/19 17:30,502
6/5/19 17:30,509
6/5/19 17:30,502
6/5/19 17:30,506
6/5/19 17:30,507
6/5/19 17:30,504
6/5/19 17:30,511
6/5/19 17:30,503
6/5/19 17:30,507
6/5/19 17:30,507
6/5/19 17:30,505
6/5/19 17:30,509
6/5/19 17:30,503
6/5/19 17:30,508
6/5/19 17:30,506
6/5/19 17:30,524
6/5/19 17:30,539
6/5/19 17:30,504
6/5/19 17:30,486
6/5/19 17:30,491
6/5/19 17:30,493
6/5/19 17:30,502
6/5/19 17:30,502
6/5/19 17:30,508
6/5/19 17:30,506
6/5/19 17:30,506
6/5/19 17:30,514
6/5/19 17:30,505
6/5/19 17:30,510
6/5/19 17:30,504
6/5/19 17:30,505
6/5/19 17:30,509
6/5/19 17:30,502
6/5/19 17:30,507
6/5/19 17:30,507
6/5/19 17:30,505
6/5/19 17:30,507
6/5/19 17:30,501
6/5/19 17:30,507
6/5/19 17:30,506
6/5/19 17:30,506
6/5/19 17:30,510
6/5/19 17:30,505
6/5/19 17:30,513
6/5/19 17:30,507
6/5/19 17:30,505
6/5/19 17:30,509
6/5/19 17:30,505
6/5/19 17:30,511
6/5/19 17:30,508
6/5/19 17:30,508
6/5/19 17:30,512
6/5/19 17:30,506
6/5/19 17:30,510
6/5/19 17:30,507
6/5/19 17:30,507
6/5/19 17:30,511
6/5/19 17:30,502
6/5/19 17:30,510
6/5/19 17:30,508
6/5/19 17:30,507
6/5/19 17:30,508
6/5/19 17:30,503
6/5/19 17:30,511
6/5/19 17:30,507
6/5/19 17:30,509
6/5/19 17:30,507
6/5/19 17:30,504
6/5/19 17:30,509
6/5/19 17:30,500
6/5/19 17:30,506
6/5/19 17:30,511
6/5/19 17:30,507
6/5/19 17:30,511
6/5/19 17:30,506
6/5/19 17:30,504
6/5/19 17:30,508
6/5/19 17:30,503
6/5/19 17:30,508
6/5/19 17:30,505
6/5/19 17:30,507
6/5/19 17:30,507
6/5/19 17:30,503
6/5/19 17:30,509
6/5/19 17:30,505
6/5/19 17:30,507
6/5/19 17:30,503
6/5/19 17:30,523
6/5/19 17:30,536
6/5/19 17:30,504
6/5/19 17:30,491
6/5/19 17:30,494
6/5/19 17:30,499
6/5/19 17:30,508
6/5/19 17:30,504
6/5/19 17:30,502
6/5/19 17:30,502
6/5/19 17:30,501
6/5/19 17:30,510
6/5/19 17:30,509
6/5/19 17:30,507
6/5/19 17:30,504
6/5/19 17:30,500
6/5/19 17:30,505
6/5/19 17:30,502
6/5/19 17:30,506
6/5/19 17:30,508
6/5/19 17:30,504
6/5/19 17:30,510
6/5/19 17:30,505
6/5/19 17:30,509
6/5/19 17:30,509
6/5/19 17:30,507
6/5/19 17:30,511
6/5/19 17:30,499
6/5/19 17:30,510
6/5/19 17:30,510
6/5/19 17:30,507
6/5/19 17:30,514
6/5/19 17:30,505
6/5/19 17:30,509
6/5/19 17:30,508
6/5/19 17:30,506
6/5/19 17:30,511
6/5/19 17:30,509
6/5/19 17:30,513
6/5/19 17:30,509
6/5/19 17:30,507
6/5/19 17:30,507
6/5/19 17:30,504
6/5/19 17:30,509
6/5/19 17:30,507
6/5/19 17:30,506
6/5/19 17:30,508
6/5/19 17:30,502
6/5/19 17:30,512
6/5/19 17:30,507
6/5/19 17:30,501
6/5/19 17:30,510
6/5/19 17:30,505
6/5/19 17:30,511
6/5/19 17:30,507
6/5/19 17:30,508
6/5/19 17:30,510
6/5/19 17:30,503
6/5/19 17:30,510
6/5/19 17:30,506
6/5/19 17:30,504
6/5/19 17:30,507
6/5/19 17:30,503
6/5/19 17:30,506
6/5/19 17:30,504
6/5/19 17:30,505
6/5/19 17:30,507
6/5/19 17:30,503
6/5/19 17:30,510
6/5/19 17:30,501
6/5/19 17:30,508
6/5/19 17:30,509
6/5/19 17:30,503
6/5/19 17:30,514
6/5/19 17:30,537
6/5/19 17:30,532
6/5/19 17:30,491
6/5/19 17:30,483
6/5/19 17:30,501
6/5/19 17:30,510
6/5/19 17:30,510
6/5/19 17:30,509
6/5/19 17:30,496
6/5/19 17:30,505
6/5/19 17:30,502
6/5/19 17:30,506
6/5/19 17:30,507
6/5/19 17:30,503
6/5/19 17:30,507
6/5/19 17:30,504
6/5/19 17:30,505
6/5/19 17:30,506
6/5/19 17:30,501
6/5/19 17:30,506
6/5/19 17:30,505
6/5/19 17:30,506
6/5/19 17:30,507
6/5/19 17:30,505
6/5/19 17:30,511
6/5/19 17:30,504
6/5/19 17:30,508
6/5/19 17:30,508
6/5/19 17:30,506
6/5/19 17:30,511
6/5/19 17:30,505
6/5/19 17:30,510
6/5/19 17:30,509
6/5/19 17:30,506
6/5/19 17:30,511
6/5/19 17:30,507
6/5/19 17:30,509
6/5/19 17:30,509
6/5/19 17:30,505
6/5/19 17:30,511
6/5/19 17:30,504
6/5/19 17:30,509
6/5/19 17:30,508
6/5/19 17:30,506
6/5/19 17:39,506
6/5/19 17:39,503
6/5/19 17:39,508
6/5/19 17:39,501
6/5/19 17:39,510
6/5/19 17:39,507
6/5/19 17:39,507
6/5/19 17:39,512
6/5/19 17:39,532
6/5/19 17:39,534
6/5/19 17:39,488
6/5/19 17:39,488
6/5/19 17:39,499
6/5/19 17:39,497
6/5/19 17:39,508
6/5/19 17:39,502
6/5/19 17:39,506
6/5/19 17:39,509
6/5/19 17:39,504
6/5/19 17:39,513
6/5/19 17:39,505
6/5/19 17:39,506
6/5/19 17:39,509
6/5/19 17:39,500
6/5/19 17:39,508
6/5/19 17:39,501
6/5/19 17:39,505
6/5/19 17:39,506
6/5/19 17:39,496
6/5/19 17:39,509
6/5/19 17:39,504
6/5/19 17:39,506
6/5/19 17:39,510
6/5/19 17:39,504
6/5/19 17:39,512
6/5/19 17:39,505
6/5/19 17:39,509
6/5/19 17:39,511
6/5/19 17:39,505
6/5/19 17:39,514
6/5/19 17:39,504
6/5/19 17:39,509
6/5/19 17:39,510
6/5/19 17:39,504
6/5/19 17:39,514
6/5/19 17:39,505
6/5/19 17:39,511
6/5/19 17:39,509
6/5/19 17:39,505
6/5/19 17:39,510
6/5/19 17:39,503
6/5/19 17:39,509
6/5/19 17:39,509
6/5/19 17:39,502
6/5/19 17:39,514
6/5/19 17:39,503
6/5/19 17:39,511
6/5/19 17:39,509
6/5/19 17:39,506
6/5/19 17:39,512
6/5/19 17:39,503
6/5/19 17:39,508
6/5/19 17:39,508
6/5/19 17:39,504
6/5/19 17:39,510
6/5/19 17:39,503
6/5/19 17:39,509
6/5/19 17:39,507
6/5/19 17:39,503
6/5/19 17:39,511
6/5/19 17:39,503
6/5/19 17:39,507
6/5/19 17:39,507
6/5/19 17:39,501
6/5/19 17:39,509
6/5/19 17:39,504
6/5/19 17:39,510
6/5/19 17:39,506
6/5/19 17:39,506
6/5/19 17:39,512
6/5/19 17:39,503
6/5/19 17:39,534
6/5/19 17:39,528
6/5/19 17:39,500
6/5/19 17:39,490
6/5/19 17:39,491
6/5/19 17:39,509
6/5/19 17:39,508
6/5/19 17:39,500
6/5/19 17:39,503
6/5/19 17:39,499
6/5/19 17:39,507
6/5/19 17:39,504
6/5/19 17:39,506
6/5/19 17:39,511
6/5/19 17:39,503
6/5/19 17:39,511
6/5/19 17:39,504
6/5/19 17:39,505
6/5/19 17:39,508
6/5/19 17:39,501
6/5/19 17:39,509
6/5/19 17:39,503
6/5/19 17:39,505
6/5/19 17:39,508
6/5/19 17:39,504
6/5/19 17:39,510
6/5/19 17:39,504
6/5/19 17:39,506
6/5/19 17:39,510
6/5/19 17:39,504
6/5/19 17:39,512
6/5/19 17:39,506
6/5/19 17:39,508
6/5/19 17:39,510
6/5/19 17:39,505
6/5/19 17:39,513
6/5/19 17:39,507
6/5/19 17:39,508
6/5/19 17:39,512
6/5/19 17:39,499
6/5/19 17:39,513
6/5/19 17:39,505
6/5/19 17:39,509
6/5/19 17:39,509
6/5/19 17:39,506
6/5/19 17:39,511
6/5/19 17:39,506
6/5/19 17:39,509
6/5/19 17:39,509
6/5/19 17:39,504
6/5/19 17:39,511
6/5/19 17:39,504
6/5/19 17:39,509
6/5/19 17:39,509
6/5/19 17:39,503
6/5/19 17:39,511
6/5/19 17:39,504
6/5/19 17:39,506
6/5/19 17:39,507
6/5/19 17:39,502
6/5/19 17:39,509
6/5/19 17:39,504
6/5/19 17:39,508
6/5/19 17:39,507
6/5/19 17:39,503
6/5/19 17:39,510
6/5/19 17:39,500
6/5/19 17:39,507
6/5/19 17:39,507
6/5/19 17:39,504
6/5/19 17:39,511
6/5/19 17:39,502
6/5/19 17:39,508
6/5/19 17:39,507
6/5/19 17:39,504
6/5/19 17:39,538
6/5/19 17:39,535
6/5/19 17:39,498
6/5/19 17:39,491
6/5/19 17:39,492
6/5/19 17:39,509
6/5/19 17:39,501
6/5/19 17:39,505
6/5/19 17:39,503
6/5/19 17:39,500
6/5/19 17:39,510
6/5/19 17:39,500
6/5/19 17:39,508
6/5/19 17:39,507
6/5/19 17:39,506
6/5/19 17:39,510
6/5/19 17:39,503
6/5/19 17:39,508
6/5/19 17:39,505
6/5/19 17:39,503
6/5/19 17:39,509
6/5/19 17:39,503
6/5/19 17:39,509
6/5/19 17:39,504
6/5/19 17:39,503
6/5/19 17:39,511
6/5/19 17:39,503
6/5/19 17:39,504
6/5/19 17:39,507
6/5/19 17:39,506
6/5/19 17:39,512
6/5/19 17:39,505
6/5/19 17:39,513
6/5/19 17:39,508
6/5/19 17:39,508
6/5/19 17:39,512
6/5/19 17:39,505
6/5/19 17:39,514
6/5/19 17:39,507
6/5/19 17:39,508
6/5/19 17:39,511
6/5/19 17:39,503
6/5/19 17:39,511
6/5/19 17:39,505
6/5/19 17:39,507
6/5/19 17:39,511
6/5/19 17:39,503
6/5/19 17:39,511
6/5/19 17:39,507
6/5/19 17:39,506
6/5/19 17:39,512
6/5/19 17:39,504
6/5/19 17:39,509
6/5/19 17:39,503
6/5/19 17:39,505
6/5/19 17:39,506
6/5/19 17:39,504
6/5/19 17:39,506
6/5/19 17:39,504
6/5/19 17:39,509
6/5/19 17:39,510
6/5/19 17:39,503
6/5/19 17:39,511
6/5/19 17:39,502
6/5/19 17:39,506
6/5/19 17:39,507
6/5/19 17:39,501
6/5/19 17:39,510
6/5/19 17:39,503
6/5/19 17:39,508
6/5/19 17:39,509
6/5/19 17:39,504
6/5/19 17:39,513
6/5/19 17:39,504
6/5/19 17:39,506
6/5/19 17:39,524
6/5/19 17:39,530
6/5/19 17:39,514
6/5/19 17:39,486
6/5/19 17:39,489
6/5/19 17:39,499
6/5/19 17:39,496
6/5/19 17:39,507
6/5/19 17:39,502
6/5/19 17:39,504
6/5/19 17:39,506
6/5/19 17:39,506
6/5/19 17:39,513
6/5/19 17:39,507
6/5/19 17:39,510
6/5/19 17:39,510
6/5/19 17:39,504
6/5/19 17:39,509
6/5/19 17:39,504
6/5/19 17:39,509
6/5/19 17:39,507
6/5/19 17:39,502
6/5/19 17:39,510
6/5/19 17:39,501
6/5/19 17:39,508
6/5/19 17:39,504
6/5/19 17:39,503
6/5/19 17:39,509
6/5/19 17:39,503
6/5/19 17:39,509
6/5/19 17:39,509
6/5/19 17:39,506
6/5/19 17:39,511
6/5/19 17:39,504
6/5/19 17:39,511
6/5/19 17:39,503
6/5/19 17:39,507
6/5/19 17:39,514
6/5/19 17:39,506
6/5/19 17:39,513
6/5/19 17:39,508
6/5/19 17:39,507
6/5/19 17:39,510
6/5/19 17:39,504
6/5/19 17:39,510
6/5/19 17:39,506
6/5/19 17:39,507
6/5/19 17:39,511
6/5/19 17:39,502
6/5/19 17:39,510
6/5/19 17:39,508
6/5/19 17:39,505
6/5/19 17:39,511
6/5/19 17:39,501
6/5/19 17:39,511
6/5/19 17:39,507
6/5/19 17:39,504
6/5/19 17:39,510
6/5/19 17:39,503
6/5/19 17:39,510
6/5/19 17:39,504
6/5/19 17:39,505
6/5/19 17:39,509
6/5/19 17:39,502
6/5/19 17:39,509
6/5/19 17:39,504
6/5/19 17:39,504
6/5/19 17:39,509
6/5/19 17:39,502
6/5/19 17:39,510
6/5/19 17:39,505
6/5/19 17:39,507
6/5/19 17:39,509
6/5/19 17:39,501
6/5/19 17:39,510
6/5/19 17:39,504
6/5/19 17:39,524
6/5/19 17:39,536
6/5/19 17:39,501
6/5/19 17:39,490
6/5/19 17:39,494
6/5/19 17:39,498
6/5/19 17:39,498
6/5/19 17:39,499
6/5/19 17:39,509
6/5/19 17:39,504
6/5/19 17:39,508
6/5/19 17:39,513
6/5/19 17:39,506
6/5/19 17:39,513
6/5/19 17:39,506
6/5/19 17:39,510
6/5/19 17:39,509
6/5/19 17:39,502
6/5/19 17:39,510
6/5/19 17:39,501
6/5/19 17:39,504
6/5/19 17:39,508
6/5/19 17:39,502
6/5/19 17:39,509
6/5/19 17:39,501
6/5/19 17:39,506
6/5/19 17:39,506
6/5/19 17:39,503
6/5/19 17:39,511
6/5/19 17:39,505
6/5/19 17:39,509
6/5/19 17:39,511
6/5/19 17:39,506
6/5/19 17:39,512
6/5/19 17:39,505
6/5/19 17:39,511
6/5/19 17:39,509
6/5/19 17:39,505
6/5/19 17:39,512
6/5/19 17:39,504
6/5/19 17:39,504
6/5/19 17:39,510
6/5/19 17:39,506
6/5/19 17:39,514
6/5/19 17:39,506
6/5/19 17:39,511
6/5/19 17:39,508
6/5/19 17:39,507
6/5/19 17:39,513
6/5/19 17:39,504
6/5/19 17:39,511
6/5/19 17:39,508
6/5/19 17:39,505
6/5/19 17:39,511
6/5/19 17:39,501
6/5/19 17:39,510
6/5/19 17:39,505
6/5/19 17:39,505
6/5/19 17:39,510
6/5/19 17:39,502
6/5/19 17:39,510
6/5/19 17:39,505
6/5/19 17:39,503
6/5/19 17:39,509
6/5/19 17:39,501
6/5/19 17:39,510
6/5/19 17:39,504
6/5/19 17:39,506
6/5/19 17:39,505
6/5/19 17:39,501
6/5/19 17:39,510
6/5/19 17:39,507
6/5/19 17:39,506
6/5/19 17:39,512
6/5/19 17:39,529
6/5/19 17:39,539
6/5/19 17:39,498
6/5/19 17:39,486
6/5/19 17:39,495
6/5/19 17:39,501
6/5/19 17:39,503
6/5/19 17:39,501
6/5/19 17:39,501
6/5/19 17:39,507
6/5/19 17:39,500
6/5/19 17:39,510
6/5/19 17:39,507
6/5/19 17:39,507
6/5/19 17:39,511
6/5/19 17:39,504
6/5/19 17:39,511
6/5/19 17:39,506
6/5/19 17:39,507
6/5/19 17:39,508
6/5/19 17:39,500
6/5/19 17:39,509
6/5/19 17:39,503
6/5/19 17:39,504
6/5/19 17:39,510
6/5/19 17:39,502
6/5/19 17:39,514
6/5/19 17:39,505
6/5/19 17:39,508
6/5/19 17:39,509
6/5/19 17:39,503
6/5/19 17:39,507
6/5/19 17:39,506
6/5/19 17:39,511
6/5/19 17:39,509
6/5/19 17:39,505
6/5/19 17:39,514
6/5/19 17:39,507
6/5/19 17:39,510
6/5/19 17:39,509
6/5/19 17:39,503
6/5/19 17:39,512
6/5/19 17:39,504
6/5/19 17:39,510
6/5/19 17:39,509
6/5/19 17:39,503
6/5/19 17:39,514
6/5/19 17:39,504
6/5/19 17:39,510
6/5/19 17:39,509
6/5/19 17:39,505
6/5/19 17:39,511
6/5/19 17:39,503
6/5/19 17:39,508
6/5/19 17:39,507
6/5/19 17:39,504
6/5/19 17:39,511
6/5/19 17:39,501
6/5/19 17:39,509
6/5/19 17:39,505
6/5/19 17:39,504
6/5/19 17:39,508
6/5/19 17:39,502
6/5/19 17:39,507
6/5/19 17:39,507
6/5/19 17:39,503
6/5/19 17:39,505
6/5/19 17:39,503
6/5/19 17:39,511
6/5/19 17:39,509
6/5/19 17:39,505
6/5/19 17:39,513
6/5/19 17:39,503
6/5/19 17:39,509
6/5/19 17:39,507
6/5/19 17:39,537
6/5/19 17:39,542
6/5/19 17:39,486
6/5/19 17:39,493
6/5/19 17:39,494
6/5/19 17:39,504
6/5/19 17:39,506
6/5/19 17:39,499
6/5/19 17:39,508
6/5/19 17:39,501
6/5/19 17:39,501
6/5/19 17:39,507
6/5/19 17:39,501
6/5/19 17:39,509
6/5/19 17:39,504
6/5/19 17:39,507
6/5/19 17:39,511
6/5/19 17:39,503
6/5/19 17:39,509
6/5/19 17:39,503
6/5/19 17:39,505
6/5/19 17:39,510
6/5/19 17:39,502
6/5/19 17:39,510
6/5/19 17:39,505
6/5/19 17:39,508
6/5/19 17:39,508
6/5/19 17:39,502
6/5/19 17:39,512
6/5/19 17:39,507
6/5/19 17:39,509
6/5/19 17:39,512
6/5/19 17:39,507
6/5/19 17:39,514
6/5/19 17:39,506
6/5/19 17:39,507
6/5/19 17:39,511
6/5/19 17:39,504
6/5/19 17:39,511
6/5/19 17:39,505
6/5/19 17:39,508
6/5/19 17:39,508
6/5/19 17:39,504
6/5/19 17:39,510
6/5/19 17:39,505
6/5/19 17:39,505
6/5/19 17:39,509
6/5/19 17:39,507
6/5/19 17:39,510
6/5/19 17:39,504
6/5/19 17:39,510
6/5/19 17:39,505
6/5/19 17:39,505
6/5/19 17:39,512
6/5/19 17:39,507
6/5/19 17:39,509
6/5/19 17:39,508
6/5/19 17:39,505
6/5/19 17:39,510
6/5/19 17:39,502
6/5/19 17:39,509
6/5/19 17:39,507
6/5/19 17:39,504
6/5/19 17:39,510
6/5/19 17:39,502
6/5/19 17:39,509
6/5/19 17:39,506
6/5/19 17:39,503
6/5/19 17:39,509
6/5/19 17:39,502
6/5/19 17:39,509
6/5/19 17:39,508
6/5/19 17:39,504
6/5/19 17:39,509
6/5/19 17:39,526
6/5/19 17:39,539
6/5/19 17:39,500
6/5/19 17:39,484
6/5/19 17:39,501
6/5/19 17:39,493
6/5/19 17:39,502
6/5/19 17:39,502
6/5/19 17:39,502
6/5/19 17:39,509
6/5/19 17:39,503
6/5/19 17:39,511
6/5/19 17:39,507
6/5/19 17:39,506
6/5/19 17:39,507
6/5/19 17:39,503
6/5/19 17:39,507
6/5/19 17:39,506
6/5/19 17:39,504
6/5/19 17:39,509
6/5/19 17:39,501
6/5/19 17:39,509
6/5/19 17:39,505
6/5/19 17:39,505
6/5/19 17:39,509
6/5/19 17:39,502
6/5/19 17:39,510
6/5/19 17:39,506
6/5/19 17:39,509
6/5/19 17:39,510
6/5/19 17:39,504
6/5/19 17:39,511
6/5/19 17:39,507
6/5/19 17:39,508
6/5/19 17:39,511
6/5/19 17:39,503
6/5/19 17:39,513
6/5/19 17:39,506
6/5/19 17:39,508
6/5/19 17:39,510
6/5/19 17:39,502
6/5/19 17:39,513
6/5/19 17:39,506
6/5/19 17:39,506
6/5/19 17:39,510
6/5/19 17:39,503
6/5/19 17:39,513
6/5/19 17:39,506
6/5/19 17:39,508
6/5/19 17:39,510
6/5/19 17:39,503
6/5/19 17:39,511
6/5/19 17:39,505
6/5/19 17:39,508
6/5/19 17:39,509
6/5/19 17:39,503
6/5/19 17:39,511
6/5/19 17:39,503
6/5/19 17:39,506
6/5/19 17:39,508
6/5/19 17:39,502
6/5/19 17:39,510
6/5/19 17:39,503
6/5/19 17:39,505
6/5/19 17:39,507
6/5/19 17:39,498
6/5/19 17:39,511
6/5/19 17:39,505
6/5/19 17:39,509
6/5/19 17:39,508
6/5/19 17:48,506
6/5/19 17:48,508
6/5/19 17:48,508
6/5/19 17:48,510
6/5/19 17:48,505
6/5/19 17:48,513
6/5/19 17:48,507
6/5/19 17:48,507
6/5/19 17:48,509
6/5/19 17:48,504
6/5/19 17:48,510
6/5/19 17:48,506
6/5/19 17:48,507
6/5/19 17:48,510
6/5/19 17:48,503
6/5/19 17:48,511
6/5/19 17:48,505
6/5/19 17:48,507
6/5/19 17:48,510
6/5/19 17:48,506
6/5/19 17:48,508
6/5/19 17:48,503
6/5/19 17:48,509
6/5/19 17:48,509
6/5/19 17:48,505
6/5/19 17:48,513
6/5/19 17:48,506
6/5/19 17:48,507
6/5/19 17:48,507
6/5/19 17:48,503
6/5/19 17:48,510
6/5/19 17:48,502
6/5/19 17:48,507
6/5/19 17:48,509
6/5/19 17:48,502
6/5/19 17:48,509
6/5/19 17:48,505
6/5/19 17:48,507
6/5/19 17:48,508
6/5/19 17:48,501
6/5/19 17:48,510
6/5/19 17:48,505
6/5/19 17:48,537
6/5/19 17:48,539
6/5/19 17:48,496
6/5/19 17:48,490
6/5/19 17:48,488
6/5/19 17:48,504
6/5/19 17:48,505
6/5/19 17:48,500
6/5/19 17:48,507
6/5/19 17:48,499
6/5/19 17:48,505
6/5/19 17:48,506
6/5/19 17:48,505
6/5/19 17:48,511
6/5/19 17:48,505
6/5/19 17:48,504
6/5/19 17:48,506
6/5/19 17:48,503
6/5/19 17:48,512
6/5/19 17:48,505
6/5/19 17:48,509
6/5/19 17:48,507
6/5/19 17:48,505
6/5/19 17:48,510
6/5/19 17:48,504
6/5/19 17:48,509
6/5/19 17:48,505
6/5/19 17:48,504
6/5/19 17:48,510
6/5/19 17:48,504
6/5/19 17:48,511
6/5/19 17:48,507
6/5/19 17:48,508
6/5/19 17:48,512
6/5/19 17:48,504
6/5/19 17:48,510
6/5/19 17:48,508
6/5/19 17:48,508
6/5/19 17:48,513
6/5/19 17:48,506
6/5/19 17:48,511
6/5/19 17:48,507
6/5/19 17:48,509
6/5/19 17:48,511
6/5/19 17:48,503
6/5/19 17:48,510
6/5/19 17:48,506
6/5/19 17:48,506
6/5/19 17:48,509
6/5/19 17:48,505
6/5/19 17:48,510
6/5/19 17:48,506
6/5/19 17:48,507
6/5/19 17:48,510
6/5/19 17:48,502
6/5/19 17:48,511
6/5/19 17:48,505
6/5/19 17:48,505
6/5/19 17:48,509
6/5/19 17:48,502
6/5/19 17:48,509
6/5/19 17:48,502
6/5/19 17:48,505
6/5/19 17:48,509
6/5/19 17:48,503
6/5/19 17:48,507
6/5/19 17:48,502
6/5/19 17:48,507
6/5/19 17:48,507
6/5/19 17:48,504
6/5/19 17:48,511
6/5/19 17:48,501
6/5/19 17:48,506
6/5/19 17:48,521
6/5/19 17:48,533
6/5/19 17:48,521
6/5/19 17:48,489
6/5/19 17:48,493
6/5/19 17:48,497
6/5/19 17:48,499
6/5/19 17:48,511
6/5/19 17:48,504
6/5/19 17:48,507
6/5/19 17:48,509
6/5/19 17:48,500
6/5/19 17:48,505
6/5/19 17:48,501
6/5/19 17:48,504
6/5/19 17:48,505
6/5/19 17:48,504
6/5/19 17:48,511
6/5/19 17:48,503
6/5/19 17:48,507
6/5/19 17:48,507
6/5/19 17:48,503
6/5/19 17:48,510
6/5/19 17:48,504
6/5/19 17:48,508
6/5/19 17:48,507
6/5/19 17:48,505
6/5/19 17:48,510
6/5/19 17:48,505
6/5/19 17:48,509
6/5/19 17:48,509
6/5/19 17:48,506
6/5/19 17:48,510
6/5/19 17:48,500
6/5/19 17:48,511
6/5/19 17:48,510
6/5/19 17:48,505
6/5/19 17:48,515
6/5/19 17:48,506
6/5/19 17:48,509
6/5/19 17:48,509
6/5/19 17:48,507
6/5/19 17:48,509
6/5/19 17:48,505
6/5/19 17:48,510
6/5/19 17:48,507
6/5/19 17:48,506
6/5/19 17:48,511
6/5/19 17:48,505
6/5/19 17:48,510
6/5/19 17:48,508
6/5/19 17:48,505
6/5/19 17:48,510
6/5/19 17:48,503
6/5/19 17:48,509
6/5/19 17:48,505
6/5/19 17:48,503
6/5/19 17:48,510
6/5/19 17:48,505
6/5/19 17:48,508
6/5/19 17:48,504
6/5/19 17:48,506
6/5/19 17:48,508
6/5/19 17:48,501
6/5/19 17:48,508
6/5/19 17:48,504
6/5/19 17:48,506
6/5/19 17:48,507
6/5/19 17:48,503
6/5/19 17:48,510
6/5/19 17:48,505
6/5/19 17:48,505
6/5/19 17:48,508
6/5/19 17:48,528
6/5/19 17:48,539
6/5/19 17:48,496
6/5/19 17:48,490
6/5/19 17:48,498
6/5/19 17:48,501
6/5/19 17:48,509
6/5/19 17:48,501
6/5/19 17:48,508
6/5/19 17:48,505
6/5/19 17:48,499
6/5/19 17:48,507
6/5/19 17:48,504
6/5/19 17:48,508
6/5/19 17:48,508
6/5/19 17:48,504
6/5/19 17:48,509
6/5/19 17:48,504
6/5/19 17:48,507
6/5/19 17:48,506
6/5/19 17:48,502
6/5/19 17:48,508
6/5/19 17:48,501
6/5/19 17:48,505
6/5/19 17:48,508
6/5/19 17:48,505
6/5/19 17:48,510
6/5/19 17:48,505
6/5/19 17:48,508
6/5/19 17:48,509
6/5/19 17:48,505
6/5/19 17:48,512
6/5/19 17:48,505
6/5/19 17:48,510
6/5/19 17:48,510
6/5/19 17:48,506
6/5/19 17:48,512
6/5/19 17:48,506
6/5/19 17:48,511
6/5/19 17:48,507
6/5/19 17:48,504
6/5/19 17:48,512
6/5/19 17:48,504
6/5/19 17:48,508
6/5/19 17:48,508
6/5/19 17:48,506
6/5/19 17:48,512
6/5/19 17:48,503
6/5/19 17:48,510
6/5/19 17:48,508
6/5/19 17:48,504
6/5/19 17:48,512
6/5/19 17:48,504
6/5/19 17:48,505
6/5/19 17:48,508
6/5/19 17:48,504
6/5/19 17:48,511
6/5/19 17:48,504
6/5/19 17:48,509
6/5/19 17:48,505
6/5/19 17:48,504
6/5/19 17:48,510
6/5/19 17:48,502
6/5/19 17:48,509
6/5/19 17:48,506
6/5/19 17:48,504
6/5/19 17:48,508
6/5/19 17:48,502
6/5/19 17:48,508
6/5/19 17:48,506
6/5/19 17:48,506
6/5/19 17:48,509
6/5/19 17:48,511
6/5/19 17:48,537
6/5/19 17:48,523
6/5/19 17:48,490
6/5/19 17:48,494
6/5/19 17:48,491
6/5/19 17:48,505
6/5/19 17:48,502
6/5/19 17:48,502
6/5/19 17:48,509
6/5/19 17:48,502
6/5/19 17:48,504
6/5/19 17:48,502
6/5/19 17:48,502
6/5/19 17:48,506
6/5/19 17:48,503
6/5/19 17:48,513
6/5/19 17:48,508
6/5/19 17:48,507
6/5/19 17:48,511
6/5/19 17:48,504
6/5/19 17:48,510
6/5/19 17:48,504
6/5/19 17:48,507
6/5/19 17:48,510
6/5/19 17:48,504
6/5/19 17:48,510
6/5/19 17:48,505
6/5/19 17:48,508
6/5/19 17:48,511
6/5/19 17:48,506
6/5/19 17:48,511
6/5/19 17:48,505
6/5/19 17:48,508
6/5/19 17:48,510
6/5/19 17:48,499
6/5/19 17:48,512
6/5/19 17:48,507
6/5/19 17:48,511
6/5/19 17:48,510
6/5/19 17:48,507
6/5/19 17:48,513
6/5/19 17:48,507
6/5/19 17:48,510
6/5/19 17:48,508
6/5/19 17:48,504
6/5/19 17:48,513
6/5/19 17:48,503
6/5/19 17:48,508
6/5/19 17:48,507
6/5/19 17:48,507
6/5/19 17:48,512
6/5/19 17:48,505
6/5/19 17:48,509
6/5/19 17:48,505
6/5/19 17:48,505
6/5/19 17:48,510
6/5/19 17:48,502
6/5/19 17:48,507
6/5/19 17:48,506
6/5/19 17:48,505
6/5/19 17:48,508
6/5/19 17:48,502
6/5/19 17:48,507
6/5/19 17:48,506
6/5/19 17:48,503
6/5/19 17:48,508
6/5/19 17:48,503
6/5/19 17:48,507
6/5/19 17:48,504
6/5/19 17:48,507
6/5/19 17:48,512
6/5/19 17:48,503
6/5/19 17:48,512
6/5/19 17:48,537
6/5/19 17:48,540
6/5/19 17:48,497
6/5/19 17:48,484
6/5/19 17:48,498
6/5/19 17:48,502
6/5/19 17:48,505
6/5/19 17:48,508
6/5/19 17:48,496
6/5/19 17:48,505
6/5/19 17:48,505
6/5/19 17:48,502
6/5/19 17:48,509
6/5/19 17:48,504
6/5/19 17:48,510
6/5/19 17:48,506
6/5/19 17:48,505
6/5/19 17:48,508
6/5/19 17:48,503
6/5/19 17:48,509
6/5/19 17:48,504
6/5/19 17:48,504
6/5/19 17:48,508
6/5/19 17:48,503
6/5/19 17:48,510
6/5/19 17:48,504
6/5/19 17:48,506
6/5/19 17:48,509
6/5/19 17:48,505
6/5/19 17:48,512
6/5/19 17:48,506
6/5/19 17:48,510
6/5/19 17:48,510
6/5/19 17:48,505
6/5/19 17:48,510
6/5/19 17:48,502
6/5/19 17:48,507
6/5/19 17:48,512
6/5/19 17:48,508
6/5/19 17:48,514
6/5/19 17:48,507
6/5/19 17:48,508
6/5/19 17:48,509
6/5/19 17:48,505
6/5/19 17:48,511
6/5/19 17:48,504
6/5/19 17:48,509
6/5/19 17:48,510
6/5/19 17:48,504
6/5/19 17:48,513
6/5/19 17:48,504
6/5/19 17:48,508
6/5/19 17:48,505
6/5/19 17:48,507
6/5/19 17:48,511
6/5/19 17:48,501
6/5/19 17:48,508
6/5/19 17:48,506
6/5/19 17:48,504
6/5/19 17:48,509
6/5/19 17:48,501
6/5/19 17:48,508
6/5/19 17:48,506
6/5/19 17:48,502
6/5/19 17:48,510
6/5/19 17:48,501
6/5/19 17:48,508
6/5/19 17:48,506
6/5/19 17:48,503
6/5/19 17:48,511
6/5/19 17:48,502
6/5/19 17:48,510
6/5/19 17:48,508
6/5/19 17:48,537
6/5/19 17:48,531
6/5/19 17:48,489
6/5/19 17:48,490
6/5/19 17:48,493
6/5/19 17:48,498
6/5/19 17:48,507
6/5/19 17:48,501
6/5/19 17:48,510
6/5/19 17:48,508
6/5/19 17:48,507
6/5/19 17:48,511
6/5/19 17:48,505
6/5/19 17:48,511
6/5/19 17:48,507
6/5/19 17:48,504
6/5/19 17:48,507
6/5/19 17:48,504
6/5/19 17:48,509
6/5/19 17:48,503
6/5/19 17:48,504
6/5/19 17:48,506
6/5/19 17:48,503
6/5/19 17:48,507
6/5/19 17:48,506
6/5/19 17:48,505
6/5/19 17:48,510
6/5/19 17:48,502
6/5/19 17:48,510
6/5/19 17:48,507
6/5/19 17:48,509
6/5/19 17:48,512
6/5/19 17:48,504
6/5/19 17:48,512
6/5/19 17:48,510
6/5/19 17:48,509
6/5/19 17:48,511
6/5/19 17:48,504
6/5/19 17:48,511
6/5/19 17:48,505
6/5/19 17:48,508
6/5/19 17:48,509
6/5/19 17:48,505
6/5/19 17:48,513
6/5/19 17:48,504
6/5/19 17:48,507
6/5/19 17:48,509
6/5/19 17:48,504
6/5/19 17:48,511
6/5/19 17:48,503
6/5/19 17:48,509
