X,Bin ECG
12/9/18 14:09,504
12/9/18 14:09,505
12/9/18 14:09,502
12/9/18 14:09,505
12/9/18 14:09,504
12/9/18 14:09,503
12/9/18 14:09,504
12/9/18 14:09,504
12/9/18 14:09,506
12/9/18 14:09,504
12/9/18 14:09,502
12/9/18 14:09,504
12/9/18 14:09,501
12/9/18 14:09,504
12/9/18 14:09,503
12/9/18 14:09,502
12/9/18 14:09,503
12/9/18 14:09,502
12/9/18 14:09,504
12/9/18 14:09,502
12/9/18 14:09,503
12/9/18 14:09,503
12/9/18 14:09,500
12/9/18 14:09,501
12/9/18 14:09,499
12/9/18 14:09,502
12/9/18 14:09,502
12/9/18 14:09,503
12/9/18 14:09,505
12/9/18 14:09,500
12/9/18 14:09,504
12/9/18 14:09,502
12/9/18 14:09,503
12/9/18 14:09,505
12/9/18 14:09,504
12/9/18 14:09,500
12/9/18 14:09,460
12/9/18 14:09,487
12/9/18 14:09,522
12/9/18 14:09,521
12/9/18 14:09,519
12/9/18 14:09,523
12/9/18 14:09,468
12/9/18 14:09,484
12/9/18 14:09,531
12/9/18 14:09,537
12/9/18 14:09,520
12/9/18 14:09,509
12/9/18 14:09,505
12/9/18 14:09,502
12/9/18 14:09,503
12/9/18 14:09,503
12/9/18 14:09,501
12/9/18 14:09,501
12/9/18 14:09,500
12/9/18 14:09,501
12/9/18 14:09,503
12/9/18 14:09,504
12/9/18 14:09,505
12/9/18 14:09,503
12/9/18 14:09,502
12/9/18 14:09,501
12/9/18 14:09,500
12/9/18 14:09,502
12/9/18 14:09,501
12/9/18 14:09,502
12/9/18 14:09,503
12/9/18 14:09,502
12/9/18 14:09,501
12/9/18 14:09,500
12/9/18 14:09,504
12/9/18 14:09,502
12/9/18 14:09,501
12/9/18 14:09,504
12/9/18 14:09,502
12/9/18 14:09,503
12/9/18 14:09,500
12/9/18 14:09,502
12/9/18 14:09,502
12/9/18 14:09,500
12/9/18 14:09,505
12/9/18 14:09,502
12/9/18 14:09,505
12/9/18 14:09,505
12/9/18 14:09,504
12/9/18 14:09,506
12/9/18 14:09,501
12/9/18 14:09,503
12/9/18 14:09,505
12/9/18 14:09,502
12/9/18 14:09,507
12/9/18 14:09,504
12/9/18 14:09,505
12/9/18 14:09,505
12/9/18 14:09,503
12/9/18 14:09,507
12/9/18 14:09,505
12/9/18 14:09,506
12/9/18 14:09,506
12/9/18 14:09,505
12/9/18 14:09,505
12/9/18 14:09,502
12/9/18 14:09,504
12/9/18 14:09,506
12/9/18 14:09,504
12/9/18 14:09,502
12/9/18 14:09,502
12/9/18 14:09,504
12/9/18 14:09,503
12/9/18 14:09,503
12/9/18 14:09,505
12/9/18 14:09,502
12/9/18 14:09,454
12/9/18 14:09,485
12/9/18 14:09,516
12/9/18 14:09,524
12/9/18 14:09,515
12/9/18 14:09,514
12/9/18 14:09,514
12/9/18 14:09,507
12/9/18 14:09,509
12/9/18 14:09,507
12/9/18 14:09,507
12/9/18 14:09,505
12/9/18 14:09,503
12/9/18 14:09,504
12/9/18 14:09,503
12/9/18 14:09,505
12/9/18 14:09,502
12/9/18 14:09,501
12/9/18 14:09,504
12/9/18 14:09,502
12/9/18 14:09,502
12/9/18 14:09,502
12/9/18 14:09,501
12/9/18 14:09,503
12/9/18 14:09,503
12/9/18 14:09,504
12/9/18 14:09,503
12/9/18 14:09,501
12/9/18 14:09,503
12/9/18 14:09,502
12/9/18 14:09,503
12/9/18 14:09,504
12/9/18 14:09,502
12/9/18 14:09,504
12/9/18 14:09,500
12/9/18 14:09,502
12/9/18 14:09,502
12/9/18 14:09,502
12/9/18 14:09,505
12/9/18 14:09,503
12/9/18 14:09,514
12/9/18 14:09,469
12/9/18 14:09,475
12/9/18 14:09,524
12/9/18 14:09,532
12/9/18 14:09,521
12/9/18 14:09,511
12/9/18 14:09,504
12/9/18 14:09,505
12/9/18 14:09,503
12/9/18 14:09,504
12/9/18 14:09,505
12/9/18 14:09,500
12/9/18 14:09,505
12/9/18 14:09,502
12/9/18 14:09,503
12/9/18 14:09,502
12/9/18 14:09,504
12/9/18 14:09,502
12/9/18 14:09,480
12/9/18 14:09,476
12/9/18 14:09,509
12/9/18 14:09,513
12/9/18 14:09,512
12/9/18 14:09,507
12/9/18 14:09,508
12/9/18 14:09,490
12/9/18 14:09,510
12/9/18 14:09,509
12/9/18 14:09,504
12/9/18 14:09,504
12/9/18 14:09,503
12/9/18 14:09,501
12/9/18 14:09,502
12/9/18 14:09,501
12/9/18 14:09,503
12/9/18 14:09,501
12/9/18 14:09,500
12/9/18 14:09,501
12/9/18 14:09,502
12/9/18 14:09,504
12/9/18 14:09,501
12/9/18 14:09,501
12/9/18 14:09,504
12/9/18 14:09,501
12/9/18 14:09,504
12/9/18 14:09,503
12/9/18 14:09,506
12/9/18 14:09,505
12/9/18 14:09,503
12/9/18 14:09,508
12/9/18 14:09,505
12/9/18 14:09,504
12/9/18 14:09,506
12/9/18 14:09,504
12/9/18 14:09,506
12/9/18 14:09,504
12/9/18 14:09,504
12/9/18 14:09,505
12/9/18 14:09,504
12/9/18 14:09,506
12/9/18 14:09,504
12/9/18 14:09,467
12/9/18 14:09,486
12/9/18 14:09,511
12/9/18 14:09,526
12/9/18 14:09,520
12/9/18 14:09,515
12/9/18 14:09,514
12/9/18 14:09,510
12/9/18 14:09,509
12/9/18 14:09,505
12/9/18 14:09,505
12/9/18 14:09,505
12/9/18 14:09,504
12/9/18 14:09,503
12/9/18 14:09,501
12/9/18 14:09,503
12/9/18 14:09,502
12/9/18 14:09,501
12/9/18 14:09,505
12/9/18 14:09,504
12/9/18 14:09,504
12/9/18 14:09,504
12/9/18 14:09,505
12/9/18 14:09,505
12/9/18 14:09,504
12/9/18 14:09,502
12/9/18 14:09,503
12/9/18 14:09,502
12/9/18 14:09,505
12/9/18 14:09,502
12/9/18 14:09,504
12/9/18 14:09,502
12/9/18 14:09,503
12/9/18 14:09,505
12/9/18 14:09,502
12/9/18 14:09,503
12/9/18 14:09,503
12/9/18 14:09,503
12/9/18 14:09,503
12/9/18 14:09,502
12/9/18 14:09,503
12/9/18 14:09,503
12/9/18 14:09,504
12/9/18 14:09,503
12/9/18 14:09,503
12/9/18 14:09,504
12/9/18 14:09,503
12/9/18 14:09,503
12/9/18 14:09,505
12/9/18 14:09,504
12/9/18 14:09,514
12/9/18 14:09,461
12/9/18 14:09,489
12/9/18 14:09,535
12/9/18 14:09,525
12/9/18 14:09,516
12/9/18 14:09,505
12/9/18 14:09,503
12/9/18 14:09,504
12/9/18 14:09,500
12/9/18 14:09,504
12/9/18 14:09,498
12/9/18 14:09,498
12/9/18 14:09,508
12/9/18 14:09,504
12/9/18 14:09,506
12/9/18 14:09,505
12/9/18 14:09,503
12/9/18 14:09,503
12/9/18 14:09,500
12/9/18 14:09,501
12/9/18 14:09,501
12/9/18 14:09,470
12/9/18 14:09,479
12/9/18 14:09,508
12/9/18 14:09,513
12/9/18 14:09,510
12/9/18 14:09,510
12/9/18 14:09,509
12/9/18 14:09,507
12/9/18 14:09,506
12/9/18 14:09,505
12/9/18 14:09,504
12/9/18 14:09,505
12/9/18 14:09,501
12/9/18 14:09,503
12/9/18 14:09,500
12/9/18 14:09,500
12/9/18 14:09,502
12/9/18 14:09,499
12/9/18 14:09,501
12/9/18 14:09,501
12/9/18 14:09,501
12/9/18 14:09,503
12/9/18 14:09,501
12/9/18 14:09,503
12/9/18 14:09,504
12/9/18 14:09,505
12/9/18 14:09,505
12/9/18 14:09,503
12/9/18 14:09,506
12/9/18 14:09,505
12/9/18 14:09,505
12/9/18 14:09,504
12/9/18 14:09,504
12/9/18 14:09,507
12/9/18 14:09,504
12/9/18 14:09,504
12/9/18 14:09,505
12/9/18 14:09,504
12/9/18 14:09,506
12/9/18 14:09,503
12/9/18 14:09,507
12/9/18 14:09,505
12/9/18 14:09,503
12/9/18 14:09,506
12/9/18 14:09,503
12/9/18 14:09,504
12/9/18 14:09,494
12/9/18 14:09,467
12/9/18 14:09,510
12/9/18 14:09,509
12/9/18 14:09,523
12/9/18 14:09,517
12/9/18 14:09,514
12/9/18 14:09,510
12/9/18 14:09,507
12/9/18 14:09,507
12/9/18 14:09,506
12/9/18 14:09,506
12/9/18 14:09,505
12/9/18 14:09,503
12/9/18 14:09,505
12/9/18 14:09,504
12/9/18 14:09,503
12/9/18 14:09,505
12/9/18 14:09,501
12/9/18 14:09,502
12/9/18 14:09,503
12/9/18 14:09,503
12/9/18 14:09,504
12/9/18 14:09,501
12/9/18 14:09,504
12/9/18 14:09,505
12/9/18 14:09,505
12/9/18 14:09,505
12/9/18 14:09,503
12/9/18 14:09,505
12/9/18 14:09,503
12/9/18 14:09,503
12/9/18 14:09,502
12/9/18 14:09,501
12/9/18 14:09,504
12/9/18 14:09,503
12/9/18 14:09,504
12/9/18 14:09,503
12/9/18 14:09,502
12/9/18 14:09,504
12/9/18 14:09,503
12/9/18 14:09,504
12/9/18 14:09,503
12/9/18 14:09,511
12/9/18 14:09,478
12/9/18 14:09,471
12/9/18 14:09,516
12/9/18 14:09,534
12/9/18 14:09,518
12/9/18 14:09,511
12/9/18 14:09,503
12/9/18 14:09,502
12/9/18 14:09,504
12/9/18 14:09,501
12/9/18 14:09,505
12/9/18 14:09,500
12/9/18 14:09,500
12/9/18 14:09,501
12/9/18 14:09,501
12/9/18 14:09,505
12/9/18 14:09,501
12/9/18 14:09,502
12/9/18 14:09,501
12/9/18 14:09,500
12/9/18 14:09,502
12/9/18 14:09,501
12/9/18 14:09,503
12/9/18 14:09,500
12/9/18 14:09,501
12/9/18 14:09,504
12/9/18 14:09,501
12/9/18 14:09,502
12/9/18 14:09,504
12/9/18 14:09,503
12/9/18 14:09,504
12/9/18 14:09,502
12/9/18 14:09,502
12/9/18 14:09,502
12/9/18 14:09,503
12/9/18 14:09,504
12/9/18 14:09,502
12/9/18 14:09,502
12/9/18 14:09,503
12/9/18 14:09,503
12/9/18 14:09,506
12/9/18 14:09,502
12/9/18 14:09,504
12/9/18 14:09,506
12/9/18 14:09,503
12/9/18 14:09,506
12/9/18 14:09,503
12/9/18 14:09,505
12/9/18 14:09,504
12/9/18 14:09,505
12/9/18 14:09,505
12/9/18 14:09,504
12/9/18 14:09,482
12/9/18 14:09,476
12/9/18 14:09,511
12/9/18 14:09,518
12/9/18 14:09,516
12/9/18 14:09,514
12/9/18 14:09,512
12/9/18 14:09,509
12/9/18 14:09,509
12/9/18 14:09,506
12/9/18 14:09,508
12/9/18 14:09,505
12/9/18 14:09,485
12/9/18 14:09,508
12/9/18 14:09,510
12/9/18 14:09,510
12/9/18 14:09,507
12/9/18 14:09,503
12/9/18 14:09,503
12/9/18 14:09,500
12/9/18 14:09,501
12/9/18 14:09,501
12/9/18 14:09,500
12/9/18 14:09,502
12/9/18 14:09,498
12/9/18 14:09,502
12/9/18 14:09,502
12/9/18 14:09,501
12/9/18 14:09,504
12/9/18 14:09,503
12/9/18 14:09,504
12/9/18 14:09,504
12/9/18 14:09,501
12/9/18 14:09,505
12/9/18 14:09,504
12/9/18 14:09,503
12/9/18 14:09,504
12/9/18 14:09,503
12/9/18 14:09,505
12/9/18 14:09,503
12/9/18 14:09,503
12/9/18 14:09,502
12/9/18 14:09,503
12/9/18 14:09,502
12/9/18 14:09,503
12/9/18 14:09,506
12/9/18 14:09,504
12/9/18 14:09,504
12/9/18 14:09,503
12/9/18 14:09,503
12/9/18 14:09,503
12/9/18 14:09,503
12/9/18 14:09,503
12/9/18 14:09,503
12/9/18 14:09,502
12/9/18 14:09,504
12/9/18 14:09,503
12/9/18 14:09,504
12/9/18 14:09,504
12/9/18 14:09,502
12/9/18 14:09,511
12/9/18 14:09,484
12/9/18 14:09,469
12/9/18 14:09,513
12/9/18 14:09,533
12/9/18 14:09,524
12/9/18 14:09,511
12/9/18 14:09,506
12/9/18 14:09,503
12/9/18 14:09,503
12/9/18 14:09,505
12/9/18 14:09,503
12/9/18 14:09,502
12/9/18 14:09,504
12/9/18 14:09,473
12/9/18 14:09,482
12/9/18 14:09,493
12/9/18 14:09,519
12/9/18 14:09,522
12/9/18 14:09,516
12/9/18 14:09,513
12/9/18 14:09,507
12/9/18 14:09,507
12/9/18 14:09,504
12/9/18 14:09,503
12/9/18 14:09,505
12/9/18 14:09,502
12/9/18 14:09,503
12/9/18 14:09,503
12/9/18 14:09,502
12/9/18 14:09,504
12/9/18 14:09,504
12/9/18 14:09,503
12/9/18 14:09,503
12/9/18 14:09,503
12/9/18 14:09,501
12/9/18 14:09,502
12/9/18 14:09,501
12/9/18 14:09,500
12/9/18 14:09,501
12/9/18 14:09,502
12/9/18 14:09,499
12/9/18 14:09,503
12/9/18 14:09,504
12/9/18 14:09,502
12/9/18 14:09,502
12/9/18 14:09,502
12/9/18 14:09,504
12/9/18 14:09,504
12/9/18 14:09,503
12/9/18 14:09,504
12/9/18 14:09,504
12/9/18 14:09,505
12/9/18 14:09,504
12/9/18 14:09,503
12/9/18 14:09,504
12/9/18 14:09,503
12/9/18 14:09,505
12/9/18 14:09,505
12/9/18 14:09,502
12/9/18 14:09,503
12/9/18 14:09,502
12/9/18 14:09,504
12/9/18 14:09,504
12/9/18 14:09,503
12/9/18 14:09,504
12/9/18 14:09,504
12/9/18 14:09,504
12/9/18 14:09,505
12/9/18 14:09,503
12/9/18 14:09,503
12/9/18 14:09,502
12/9/18 14:09,504
12/9/18 14:09,502
12/9/18 14:09,504
12/9/18 14:09,505
12/9/18 14:09,502
12/9/18 14:09,503
12/9/18 14:09,502
12/9/18 14:09,503
12/9/18 14:09,504
12/9/18 14:09,504
12/9/18 14:09,505
12/9/18 14:09,502
12/9/18 14:09,503
12/9/18 14:09,462
12/9/18 14:09,487
12/9/18 14:09,514
12/9/18 14:09,517
12/9/18 14:09,516
12/9/18 14:09,513
12/9/18 14:09,509
12/9/18 14:09,509
12/9/18 14:09,506
12/9/18 14:09,496
12/9/18 14:09,501
12/9/18 14:09,511
12/9/18 14:09,510
12/9/18 14:09,505
12/9/18 14:09,503
12/9/18 14:09,507
12/9/18 14:09,503
12/9/18 14:09,504
12/9/18 14:09,503
12/9/18 14:09,502
12/9/18 14:09,502
12/9/18 14:09,499
12/9/18 14:09,503
12/9/18 14:09,501
12/9/18 14:09,501
12/9/18 14:09,504
12/9/18 14:09,499
12/9/18 14:18,502
12/9/18 14:18,497
12/9/18 14:18,491
12/9/18 14:18,441
12/9/18 14:18,518
12/9/18 14:18,529
12/9/18 14:18,521
12/9/18 14:18,509
12/9/18 14:18,506
12/9/18 14:18,501
12/9/18 14:18,503
12/9/18 14:18,503
12/9/18 14:18,500
12/9/18 14:18,502
12/9/18 14:18,502
12/9/18 14:18,504
12/9/18 14:18,503
12/9/18 14:18,503
12/9/18 14:18,502
12/9/18 14:18,503
12/9/18 14:18,504
12/9/18 14:18,507
12/9/18 14:18,503
12/9/18 14:18,506
12/9/18 14:18,504
12/9/18 14:18,505
12/9/18 14:18,508
12/9/18 14:18,502
12/9/18 14:18,504
12/9/18 14:18,500
12/9/18 14:18,501
12/9/18 14:18,503
12/9/18 14:18,500
12/9/18 14:18,504
12/9/18 14:18,502
12/9/18 14:18,502
12/9/18 14:18,502
12/9/18 14:18,505
12/9/18 14:18,506
12/9/18 14:18,503
12/9/18 14:18,464
12/9/18 14:18,479
12/9/18 14:18,528
12/9/18 14:18,529
12/9/18 14:18,517
12/9/18 14:18,514
12/9/18 14:18,510
12/9/18 14:18,507
12/9/18 14:18,507
12/9/18 14:18,503
12/9/18 14:18,505
12/9/18 14:18,505
12/9/18 14:18,503
12/9/18 14:18,505
12/9/18 14:18,504
12/9/18 14:18,504
12/9/18 14:18,503
12/9/18 14:18,502
12/9/18 14:18,505
12/9/18 14:18,503
12/9/18 14:18,504
12/9/18 14:18,506
12/9/18 14:18,502
12/9/18 14:18,506
12/9/18 14:18,503
12/9/18 14:18,503
12/9/18 14:18,503
12/9/18 14:18,501
12/9/18 14:18,504
12/9/18 14:18,501
12/9/18 14:18,504
12/9/18 14:18,504
12/9/18 14:18,500
12/9/18 14:18,503
12/9/18 14:18,503
12/9/18 14:18,505
12/9/18 14:18,503
12/9/18 14:18,501
12/9/18 14:18,503
12/9/18 14:18,501
12/9/18 14:18,502
12/9/18 14:18,503
12/9/18 14:18,500
12/9/18 14:18,505
12/9/18 14:18,502
12/9/18 14:18,502
12/9/18 14:18,503
12/9/18 14:18,504
12/9/18 14:18,504
12/9/18 14:18,509
12/9/18 14:18,486
12/9/18 14:18,476
12/9/18 14:18,519
12/9/18 14:18,535
12/9/18 14:18,519
12/9/18 14:18,510
12/9/18 14:18,503
12/9/18 14:18,503
12/9/18 14:18,502
12/9/18 14:18,501
12/9/18 14:18,505
12/9/18 14:18,505
12/9/18 14:18,452
12/9/18 14:18,465
12/9/18 14:18,542
12/9/18 14:18,534
12/9/18 14:18,521
12/9/18 14:18,515
12/9/18 14:18,510
12/9/18 14:18,504
12/9/18 14:18,505
12/9/18 14:18,502
12/9/18 14:18,501
12/9/18 14:18,501
12/9/18 14:18,499
12/9/18 14:18,500
12/9/18 14:18,500
12/9/18 14:18,500
12/9/18 14:18,502
12/9/18 14:18,499
12/9/18 14:18,503
12/9/18 14:18,501
12/9/18 14:18,501
12/9/18 14:18,503
12/9/18 14:18,500
12/9/18 14:18,503
12/9/18 14:18,503
12/9/18 14:18,504
12/9/18 14:18,506
12/9/18 14:18,502
12/9/18 14:18,505
12/9/18 14:18,502
12/9/18 14:18,503
12/9/18 14:18,506
12/9/18 14:18,505
12/9/18 14:18,506
12/9/18 14:18,505
12/9/18 14:18,507
12/9/18 14:18,507
12/9/18 14:18,506
12/9/18 14:18,506
12/9/18 14:18,504
12/9/18 14:18,505
12/9/18 14:18,508
12/9/18 14:18,503
12/9/18 14:18,510
12/9/18 14:18,507
12/9/18 14:18,505
12/9/18 14:18,503
12/9/18 14:18,502
12/9/18 14:18,505
12/9/18 14:18,499
12/9/18 14:18,505
12/9/18 14:18,505
12/9/18 14:18,502
12/9/18 14:18,504
12/9/18 14:18,503
12/9/18 14:18,505
12/9/18 14:18,502
12/9/18 14:18,503
12/9/18 14:18,503
12/9/18 14:18,500
12/9/18 14:18,503
12/9/18 14:18,503
12/9/18 14:18,503
12/9/18 14:18,505
12/9/18 14:18,501
12/9/18 14:18,503
12/9/18 14:18,505
12/9/18 14:18,502
12/9/18 14:18,504
12/9/18 14:18,502
12/9/18 14:18,502
12/9/18 14:18,499
12/9/18 14:18,502
12/9/18 14:18,503
12/9/18 14:18,502
12/9/18 14:18,506
12/9/18 14:18,504
12/9/18 14:18,502
12/9/18 14:18,504
12/9/18 14:18,501
12/9/18 14:18,504
12/9/18 14:18,504
12/9/18 14:18,502
12/9/18 14:18,505
12/9/18 14:18,503
12/9/18 14:18,505
12/9/18 14:18,504
12/9/18 14:18,465
12/9/18 14:18,472
12/9/18 14:18,523
12/9/18 14:18,522
12/9/18 14:18,517
12/9/18 14:18,511
12/9/18 14:18,490
12/9/18 14:18,521
12/9/18 14:18,518
12/9/18 14:18,510
12/9/18 14:18,507
12/9/18 14:18,511
12/9/18 14:18,501
12/9/18 14:18,471
12/9/18 14:18,508
12/9/18 14:18,531
12/9/18 14:18,526
12/9/18 14:18,508
12/9/18 14:18,502
12/9/18 14:18,503
12/9/18 14:18,500
12/9/18 14:18,504
12/9/18 14:18,500
12/9/18 14:18,506
12/9/18 14:18,502
12/9/18 14:18,503
12/9/18 14:18,506
12/9/18 14:18,501
12/9/18 14:18,502
12/9/18 14:18,500
12/9/18 14:18,498
12/9/18 14:18,500
12/9/18 14:18,498
12/9/18 14:18,500
12/9/18 14:18,499
12/9/18 14:18,499
12/9/18 14:18,501
12/9/18 14:18,499
12/9/18 14:18,502
12/9/18 14:18,501
12/9/18 14:18,501
12/9/18 14:18,464
12/9/18 14:18,478
12/9/18 14:18,524
12/9/18 14:18,521
12/9/18 14:18,515
12/9/18 14:18,514
12/9/18 14:18,509
12/9/18 14:18,509
12/9/18 14:18,505
12/9/18 14:18,506
12/9/18 14:18,504
12/9/18 14:18,504
12/9/18 14:18,506
12/9/18 14:18,501
12/9/18 14:18,495
12/9/18 14:18,521
12/9/18 14:18,513
12/9/18 14:18,508
12/9/18 14:18,440
12/9/18 14:18,505
12/9/18 14:18,525
12/9/18 14:18,518
12/9/18 14:18,515
12/9/18 14:18,509
12/9/18 14:18,508
12/9/18 14:18,506
12/9/18 14:18,503
12/9/18 14:18,506
12/9/18 14:18,504
12/9/18 14:18,505
12/9/18 14:18,503
12/9/18 14:18,504
12/9/18 14:18,506
12/9/18 14:18,505
12/9/18 14:18,505
12/9/18 14:18,504
12/9/18 14:18,503
12/9/18 14:18,505
12/9/18 14:18,503
12/9/18 14:18,502
12/9/18 14:18,502
12/9/18 14:18,503
12/9/18 14:18,505
12/9/18 14:18,503
12/9/18 14:18,503
12/9/18 14:18,503
12/9/18 14:18,502
12/9/18 14:18,505
12/9/18 14:18,504
12/9/18 14:18,505
12/9/18 14:18,504
12/9/18 14:18,502
12/9/18 14:18,504
12/9/18 14:18,500
12/9/18 14:18,501
12/9/18 14:18,503
12/9/18 14:18,502
12/9/18 14:18,481
12/9/18 14:18,513
12/9/18 14:18,514
12/9/18 14:18,506
12/9/18 14:18,502
12/9/18 14:18,504
12/9/18 14:18,502
12/9/18 14:18,503
12/9/18 14:18,502
12/9/18 14:18,502
12/9/18 14:18,505
12/9/18 14:18,500
12/9/18 14:18,440
12/9/18 14:18,495
12/9/18 14:18,525
12/9/18 14:18,522
12/9/18 14:18,514
12/9/18 14:18,513
12/9/18 14:18,506
12/9/18 14:18,508
12/9/18 14:18,508
12/9/18 14:18,505
12/9/18 14:18,505
12/9/18 14:18,502
12/9/18 14:18,503
12/9/18 14:18,506
12/9/18 14:18,511
12/9/18 14:18,488
12/9/18 14:18,473
12/9/18 14:18,518
12/9/18 14:18,534
12/9/18 14:18,484
12/9/18 14:18,453
12/9/18 14:18,520
12/9/18 14:18,528
12/9/18 14:18,520
12/9/18 14:18,511
12/9/18 14:18,510
12/9/18 14:18,506
12/9/18 14:18,504
12/9/18 14:18,505
12/9/18 14:18,503
12/9/18 14:18,504
12/9/18 14:18,503
12/9/18 14:18,501
12/9/18 14:18,502
12/9/18 14:18,495
12/9/18 14:18,498
12/9/18 14:18,497
12/9/18 14:18,499
12/9/18 14:18,499
12/9/18 14:18,500
12/9/18 14:18,504
12/9/18 14:18,500
12/9/18 14:18,500
12/9/18 14:18,504
12/9/18 14:18,505
12/9/18 14:18,505
12/9/18 14:18,505
12/9/18 14:18,503
12/9/18 14:18,505
12/9/18 14:18,504
12/9/18 14:18,504
12/9/18 14:18,501
12/9/18 14:18,502
12/9/18 14:18,504
12/9/18 14:18,499
12/9/18 14:18,400
12/9/18 14:18,524
12/9/18 14:18,536
12/9/18 14:18,526
12/9/18 14:18,517
12/9/18 14:18,513
12/9/18 14:18,508
12/9/18 14:18,508
12/9/18 14:18,508
12/9/18 14:18,505
12/9/18 14:18,505
12/9/18 14:18,504
12/9/18 14:18,506
12/9/18 14:18,504
12/9/18 14:18,502
12/9/18 14:18,503
12/9/18 14:18,504
12/9/18 14:18,504
12/9/18 14:18,474
12/9/18 14:18,478
12/9/18 14:18,527
12/9/18 14:18,520
12/9/18 14:18,514
12/9/18 14:18,490
12/9/18 14:18,524
12/9/18 14:18,439
12/9/18 14:18,521
12/9/18 14:18,532
12/9/18 14:18,520
12/9/18 14:18,508
12/9/18 14:18,508
12/9/18 14:18,504
12/9/18 14:18,503
12/9/18 14:18,501
12/9/18 14:18,501
12/9/18 14:18,504
12/9/18 14:18,505
12/9/18 14:18,506
12/9/18 14:18,504
12/9/18 14:18,503
12/9/18 14:18,506
12/9/18 14:18,503
12/9/18 14:18,502
12/9/18 14:18,503
12/9/18 14:18,502
12/9/18 14:18,504
12/9/18 14:18,503
12/9/18 14:18,504
12/9/18 14:18,502
12/9/18 14:18,504
12/9/18 14:18,502
12/9/18 14:18,503
12/9/18 14:18,506
12/9/18 14:18,503
12/9/18 14:18,503
12/9/18 14:18,503
12/9/18 14:18,500
12/9/18 14:18,504
12/9/18 14:18,503
12/9/18 14:18,502
12/9/18 14:18,503
12/9/18 14:18,501
12/9/18 14:18,501
12/9/18 14:18,502
12/9/18 14:18,503
12/9/18 14:18,504
12/9/18 14:18,501
12/9/18 14:18,504
12/9/18 14:18,501
12/9/18 14:18,502
12/9/18 14:18,513
12/9/18 14:18,465
12/9/18 14:18,482
12/9/18 14:18,530
12/9/18 14:18,529
12/9/18 14:18,517
12/9/18 14:18,507
12/9/18 14:18,507
12/9/18 14:18,501
12/9/18 14:18,435
12/9/18 14:18,494
12/9/18 14:18,527
12/9/18 14:18,524
12/9/18 14:18,515
12/9/18 14:18,513
12/9/18 14:18,504
12/9/18 14:18,508
12/9/18 14:18,507
12/9/18 14:18,501
12/9/18 14:18,504
12/9/18 14:18,501
12/9/18 14:18,499
12/9/18 14:18,502
12/9/18 14:18,500
12/9/18 14:18,500
12/9/18 14:18,501
12/9/18 14:18,500
12/9/18 14:18,501
12/9/18 14:18,502
12/9/18 14:18,502
12/9/18 14:18,504
12/9/18 14:18,502
12/9/18 14:18,503
12/9/18 14:18,503
12/9/18 14:18,503
12/9/18 14:18,503
12/9/18 14:18,500
12/9/18 14:18,503
12/9/18 14:18,501
12/9/18 14:18,504
12/9/18 14:18,503
12/9/18 14:18,458
12/9/18 14:18,481
12/9/18 14:18,526
12/9/18 14:18,526
12/9/18 14:18,517
12/9/18 14:18,511
12/9/18 14:18,511
12/9/18 14:18,506
12/9/18 14:18,508
12/9/18 14:18,509
12/9/18 14:18,507
12/9/18 14:18,505
12/9/18 14:18,503
12/9/18 14:18,506
12/9/18 14:18,506
12/9/18 14:18,505
12/9/18 14:18,506
12/9/18 14:18,502
12/9/18 14:18,505
12/9/18 14:18,504
12/9/18 14:18,498
12/9/18 14:18,486
12/9/18 14:18,515
12/9/18 14:18,437
12/9/18 14:18,517
12/9/18 14:18,529
12/9/18 14:18,522
12/9/18 14:18,513
12/9/18 14:18,509
12/9/18 14:18,507
12/9/18 14:18,503
12/9/18 14:18,505
12/9/18 14:18,501
12/9/18 14:18,504
12/9/18 14:18,503
12/9/18 14:18,504
12/9/18 14:18,502
12/9/18 14:18,501
12/9/18 14:18,506
12/9/18 14:18,503
12/9/18 14:18,503
12/9/18 14:18,503
12/9/18 14:18,501
12/9/18 14:18,503
12/9/18 14:18,504
12/9/18 14:18,504
12/9/18 14:18,504
12/9/18 14:18,502
12/9/18 14:18,485
12/9/18 14:18,463
12/9/18 14:18,527
12/9/18 14:18,525
12/9/18 14:18,516
12/9/18 14:18,510
12/9/18 14:18,507
12/9/18 14:18,506
12/9/18 14:18,506
12/9/18 14:18,503
12/9/18 14:18,504
12/9/18 14:18,504
12/9/18 14:18,502
12/9/18 14:18,502
12/9/18 14:18,503
12/9/18 14:18,504
12/9/18 14:18,504
12/9/18 14:18,501
12/9/18 14:18,502
12/9/18 14:18,501
12/9/18 14:18,503
12/9/18 14:18,503
12/9/18 14:18,505
12/9/18 14:18,504
12/9/18 14:18,505
12/9/18 14:18,503
12/9/18 14:18,508
12/9/18 14:18,501
12/9/18 14:18,471
12/9/18 14:18,509
12/9/18 14:18,507
12/9/18 14:18,486
12/9/18 14:18,514
12/9/18 14:18,520
12/9/18 14:18,527
12/9/18 14:18,517
12/9/18 14:18,509
12/9/18 14:18,510
12/9/18 14:18,506
12/9/18 14:18,504
12/9/18 14:18,504
12/9/18 14:18,502
12/9/18 14:18,506
12/9/18 14:18,503
12/9/18 14:18,499
12/9/18 14:18,500
12/9/18 14:18,497
12/9/18 14:18,501
12/9/18 14:18,499
12/9/18 14:18,499
12/9/18 14:18,499
12/9/18 14:18,500
12/9/18 14:18,500
12/9/18 14:18,499
12/9/18 14:18,502
12/9/18 14:18,503
12/9/18 14:18,503
12/9/18 14:18,503
12/9/18 14:18,503
12/9/18 14:18,503
12/9/18 14:18,504
12/9/18 14:18,503
12/9/18 14:18,503
12/9/18 14:18,505
12/9/18 14:18,504
12/9/18 14:18,503
12/9/18 14:18,502
12/9/18 14:18,503
12/9/18 14:18,503
12/9/18 14:18,502
12/9/18 14:18,506
12/9/18 14:18,504
12/9/18 14:18,506
12/9/18 14:18,505
12/9/18 14:18,504
12/9/18 14:18,503
12/9/18 14:18,504
12/9/18 14:18,505
12/9/18 14:18,505
12/9/18 14:18,505
12/9/18 14:18,506
12/9/18 14:18,502
12/9/18 14:18,503
12/9/18 14:18,504
12/9/18 14:18,504
12/9/18 14:18,505
12/9/18 14:18,503
12/9/18 14:27,501
12/9/18 14:27,499
12/9/18 14:27,508
12/9/18 14:27,501
12/9/18 14:27,505
12/9/18 14:27,506
12/9/18 14:27,502
12/9/18 14:27,507
12/9/18 14:27,502
12/9/18 14:27,504
12/9/18 14:27,504
12/9/18 14:27,501
12/9/18 14:27,507
12/9/18 14:27,503
12/9/18 14:27,505
12/9/18 14:27,505
12/9/18 14:27,515
12/9/18 14:27,464
12/9/18 14:27,467
12/9/18 14:27,478
12/9/18 14:27,542
12/9/18 14:27,519
12/9/18 14:27,522
12/9/18 14:27,524
12/9/18 14:27,521
12/9/18 14:27,514
12/9/18 14:27,507
12/9/18 14:27,505
12/9/18 14:27,500
12/9/18 14:27,503
12/9/18 14:27,503
12/9/18 14:27,501
12/9/18 14:27,505
12/9/18 14:27,499
12/9/18 14:27,499
12/9/18 14:27,499
12/9/18 14:27,495
12/9/18 14:27,501
12/9/18 14:27,495
12/9/18 14:27,500
12/9/18 14:27,500
12/9/18 14:27,496
12/9/18 14:27,503
12/9/18 14:27,499
12/9/18 14:27,504
12/9/18 14:27,500
12/9/18 14:27,499
12/9/18 14:27,504
12/9/18 14:27,500
12/9/18 14:27,505
12/9/18 14:27,502
12/9/18 14:27,500
12/9/18 14:27,506
12/9/18 14:27,500
12/9/18 14:27,506
12/9/18 14:27,505
12/9/18 14:27,503
12/9/18 14:27,509
12/9/18 14:27,502
12/9/18 14:27,507
12/9/18 14:27,504
12/9/18 14:27,503
12/9/18 14:27,507
12/9/18 14:27,502
12/9/18 14:27,500
12/9/18 14:27,449
12/9/18 14:27,515
12/9/18 14:27,528
12/9/18 14:27,518
12/9/18 14:27,520
12/9/18 14:27,512
12/9/18 14:27,510
12/9/18 14:27,509
12/9/18 14:27,505
12/9/18 14:27,508
12/9/18 14:27,504
12/9/18 14:27,503
12/9/18 14:27,506
12/9/18 14:27,499
12/9/18 14:27,505
12/9/18 14:27,501
12/9/18 14:27,501
12/9/18 14:27,503
12/9/18 14:27,499
12/9/18 14:27,504
12/9/18 14:27,500
12/9/18 14:27,503
12/9/18 14:27,504
12/9/18 14:27,500
12/9/18 14:27,504
12/9/18 14:27,501
12/9/18 14:27,504
12/9/18 14:27,506
12/9/18 14:27,499
12/9/18 14:27,488
12/9/18 14:27,513
12/9/18 14:27,513
12/9/18 14:27,510
12/9/18 14:27,505
12/9/18 14:27,508
12/9/18 14:27,502
12/9/18 14:27,491
12/9/18 14:27,458
12/9/18 14:27,516
12/9/18 14:27,525
12/9/18 14:27,517
12/9/18 14:27,515
12/9/18 14:27,511
12/9/18 14:27,505
12/9/18 14:27,508
12/9/18 14:27,503
12/9/18 14:27,504
12/9/18 14:27,504
12/9/18 14:27,501
12/9/18 14:27,506
12/9/18 14:27,501
12/9/18 14:27,503
12/9/18 14:27,503
12/9/18 14:27,501
12/9/18 14:27,504
12/9/18 14:27,473
12/9/18 14:27,515
12/9/18 14:27,514
12/9/18 14:27,507
12/9/18 14:27,507
12/9/18 14:27,501
12/9/18 14:27,505
12/9/18 14:27,504
12/9/18 14:27,503
12/9/18 14:27,516
12/9/18 14:27,455
12/9/18 14:27,476
12/9/18 14:27,492
12/9/18 14:27,542
12/9/18 14:27,531
12/9/18 14:27,518
12/9/18 14:27,513
12/9/18 14:27,510
12/9/18 14:27,508
12/9/18 14:27,511
12/9/18 14:27,503
12/9/18 14:27,506
12/9/18 14:27,503
12/9/18 14:27,501
12/9/18 14:27,504
12/9/18 14:27,499
12/9/18 14:27,505
12/9/18 14:27,502
12/9/18 14:27,498
12/9/18 14:27,500
12/9/18 14:27,496
12/9/18 14:27,495
12/9/18 14:27,446
12/9/18 14:27,488
12/9/18 14:27,534
12/9/18 14:27,525
12/9/18 14:27,517
12/9/18 14:27,508
12/9/18 14:27,506
12/9/18 14:27,507
12/9/18 14:27,501
12/9/18 14:27,505
12/9/18 14:27,499
12/9/18 14:27,499
12/9/18 14:27,503
12/9/18 14:27,497
12/9/18 14:27,503
12/9/18 14:27,501
12/9/18 14:27,503
12/9/18 14:27,503
12/9/18 14:27,500
12/9/18 14:27,505
12/9/18 14:27,502
12/9/18 14:27,505
12/9/18 14:27,506
12/9/18 14:27,501
12/9/18 14:27,506
12/9/18 14:27,502
12/9/18 14:27,504
12/9/18 14:27,508
12/9/18 14:27,503
12/9/18 14:27,508
12/9/18 14:27,504
12/9/18 14:27,505
12/9/18 14:27,505
12/9/18 14:27,461
12/9/18 14:27,489
12/9/18 14:27,521
12/9/18 14:27,524
12/9/18 14:27,516
12/9/18 14:27,504
12/9/18 14:27,526
12/9/18 14:27,514
12/9/18 14:27,510
12/9/18 14:27,508
12/9/18 14:27,500
12/9/18 14:27,504
12/9/18 14:27,498
12/9/18 14:27,501
12/9/18 14:27,500
12/9/18 14:27,499
12/9/18 14:27,504
12/9/18 14:27,499
12/9/18 14:27,501
12/9/18 14:27,503
12/9/18 14:27,499
12/9/18 14:27,505
12/9/18 14:27,499
12/9/18 14:27,505
12/9/18 14:27,505
12/9/18 14:27,502
12/9/18 14:27,504
12/9/18 14:27,462
12/9/18 14:27,488
12/9/18 14:27,525
12/9/18 14:27,520
12/9/18 14:27,521
12/9/18 14:27,510
12/9/18 14:27,510
12/9/18 14:27,508
12/9/18 14:27,504
12/9/18 14:27,508
12/9/18 14:27,501
12/9/18 14:27,506
12/9/18 14:27,502
12/9/18 14:27,501
12/9/18 14:27,506
12/9/18 14:27,501
12/9/18 14:27,504
12/9/18 14:27,503
12/9/18 14:27,501
12/9/18 14:27,506
12/9/18 14:27,499
12/9/18 14:27,504
12/9/18 14:27,504
12/9/18 14:27,502
12/9/18 14:27,505
12/9/18 14:27,499
12/9/18 14:27,504
12/9/18 14:27,497
12/9/18 14:27,494
12/9/18 14:27,519
12/9/18 14:27,509
12/9/18 14:27,510
12/9/18 14:27,506
12/9/18 14:27,503
12/9/18 14:27,518
12/9/18 14:27,464
12/9/18 14:27,475
12/9/18 14:27,527
12/9/18 14:27,531
12/9/18 14:27,517
12/9/18 14:27,503
12/9/18 14:27,504
12/9/18 14:27,501
12/9/18 14:27,500
12/9/18 14:27,505
12/9/18 14:27,499
12/9/18 14:27,505
12/9/18 14:27,500
12/9/18 14:27,502
12/9/18 14:27,503
12/9/18 14:27,500
12/9/18 14:27,505
12/9/18 14:27,501
12/9/18 14:27,499
12/9/18 14:27,437
12/9/18 14:27,495
12/9/18 14:27,525
12/9/18 14:27,517
12/9/18 14:27,516
12/9/18 14:27,511
12/9/18 14:27,505
12/9/18 14:27,509
12/9/18 14:27,503
12/9/18 14:27,505
12/9/18 14:27,504
12/9/18 14:27,500
12/9/18 14:27,504
12/9/18 14:27,500
12/9/18 14:27,502
12/9/18 14:27,505
12/9/18 14:27,500
12/9/18 14:27,504
12/9/18 14:27,502
12/9/18 14:27,504
12/9/18 14:27,505
12/9/18 14:27,501
12/9/18 14:27,507
12/9/18 14:27,502
12/9/18 14:27,505
12/9/18 14:27,506
12/9/18 14:27,504
12/9/18 14:27,508
12/9/18 14:27,492
12/9/18 14:27,498
12/9/18 14:27,517
12/9/18 14:27,509
12/9/18 14:27,511
12/9/18 14:27,505
12/9/18 14:27,507
12/9/18 14:27,507
12/9/18 14:27,500
12/9/18 14:27,473
12/9/18 14:27,474
12/9/18 14:27,524
12/9/18 14:27,523
12/9/18 14:27,514
12/9/18 14:27,517
12/9/18 14:27,507
12/9/18 14:27,508
12/9/18 14:27,506
12/9/18 14:27,502
12/9/18 14:27,507
12/9/18 14:27,502
12/9/18 14:27,505
12/9/18 14:27,503
12/9/18 14:27,501
12/9/18 14:27,504
12/9/18 14:27,499
12/9/18 14:27,505
12/9/18 14:27,503
12/9/18 14:27,502
12/9/18 14:27,507
12/9/18 14:27,501
12/9/18 14:27,506
12/9/18 14:27,505
12/9/18 14:27,503
12/9/18 14:27,505
12/9/18 14:27,498
12/9/18 14:27,501
12/9/18 14:27,481
12/9/18 14:27,513
12/9/18 14:27,515
12/9/18 14:27,505
12/9/18 14:27,508
12/9/18 14:27,505
12/9/18 14:27,501
12/9/18 14:27,504
12/9/18 14:27,453
12/9/18 14:27,489
12/9/18 14:27,517
12/9/18 14:27,521
12/9/18 14:27,519
12/9/18 14:27,510
12/9/18 14:27,511
12/9/18 14:27,506
12/9/18 14:27,506
12/9/18 14:27,506
12/9/18 14:27,501
12/9/18 14:27,505
12/9/18 14:27,502
12/9/18 14:27,502
12/9/18 14:27,478
12/9/18 14:27,510
12/9/18 14:27,515
12/9/18 14:27,504
12/9/18 14:27,449
12/9/18 14:27,502
12/9/18 14:27,522
12/9/18 14:27,533
12/9/18 14:27,476
12/9/18 14:27,480
12/9/18 14:27,532
12/9/18 14:27,530
12/9/18 14:27,524
12/9/18 14:27,506
12/9/18 14:27,505
12/9/18 14:27,503
12/9/18 14:27,501
12/9/18 14:27,505
12/9/18 14:27,501
12/9/18 14:27,497
12/9/18 14:27,443
12/9/18 14:27,514
12/9/18 14:27,524
12/9/18 14:27,514
12/9/18 14:27,510
12/9/18 14:27,506
12/9/18 14:27,500
12/9/18 14:27,503
12/9/18 14:27,499
12/9/18 14:27,500
12/9/18 14:27,499
12/9/18 14:27,495
12/9/18 14:27,501
12/9/18 14:27,498
12/9/18 14:27,473
12/9/18 14:27,513
12/9/18 14:27,511
12/9/18 14:27,510
12/9/18 14:27,503
12/9/18 14:27,438
12/9/18 14:27,507
12/9/18 14:27,524
12/9/18 14:27,516
12/9/18 14:27,509
12/9/18 14:27,529
12/9/18 14:27,517
12/9/18 14:27,507
12/9/18 14:27,508
12/9/18 14:27,500
12/9/18 14:27,504
12/9/18 14:27,503
12/9/18 14:27,499
12/9/18 14:27,505
12/9/18 14:27,502
12/9/18 14:27,504
12/9/18 14:27,501
12/9/18 14:27,501
12/9/18 14:27,506
12/9/18 14:27,502
12/9/18 14:27,506
12/9/18 14:27,505
12/9/18 14:27,503
12/9/18 14:27,506
12/9/18 14:27,502
12/9/18 14:27,506
12/9/18 14:27,504
12/9/18 14:27,502
12/9/18 14:27,508
12/9/18 14:27,502
12/9/18 14:27,504
12/9/18 14:27,503
12/9/18 14:27,496
12/9/18 14:27,442
12/9/18 14:27,518
12/9/18 14:27,529
12/9/18 14:27,522
12/9/18 14:27,514
12/9/18 14:27,515
12/9/18 14:27,505
12/9/18 14:27,510
12/9/18 14:27,505
12/9/18 14:27,503
12/9/18 14:27,506
12/9/18 14:27,499
12/9/18 14:27,504
12/9/18 14:27,503
12/9/18 14:27,501
12/9/18 14:27,504
12/9/18 14:27,500
12/9/18 14:27,504
12/9/18 14:27,501
12/9/18 14:27,502
12/9/18 14:27,505
12/9/18 14:27,500
12/9/18 14:27,506
12/9/18 14:27,499
12/9/18 14:27,484
12/9/18 14:27,519
12/9/18 14:27,511
12/9/18 14:27,510
12/9/18 14:27,504
12/9/18 14:27,503
12/9/18 14:27,505
12/9/18 14:27,500
12/9/18 14:27,505
12/9/18 14:27,501
12/9/18 14:27,501
12/9/18 14:27,504
12/9/18 14:27,488
12/9/18 14:27,451
12/9/18 14:27,518
12/9/18 14:27,523
12/9/18 14:27,521
12/9/18 14:27,513
12/9/18 14:27,513
12/9/18 14:27,505
12/9/18 14:27,506
12/9/18 14:27,505
12/9/18 14:27,499
12/9/18 14:27,505
12/9/18 14:27,502
12/9/18 14:27,504
12/9/18 14:27,509
12/9/18 14:27,492
12/9/18 14:27,468
12/9/18 14:27,508
12/9/18 14:27,535
12/9/18 14:27,521
12/9/18 14:27,509
12/9/18 14:27,506
12/9/18 14:27,499
12/9/18 14:27,503
12/9/18 14:27,502
12/9/18 14:27,501
12/9/18 14:27,507
12/9/18 14:27,498
12/9/18 14:27,503
12/9/18 14:27,506
12/9/18 14:27,415
12/9/18 14:27,512
12/9/18 14:27,531
12/9/18 14:27,527
12/9/18 14:27,517
12/9/18 14:27,509
12/9/18 14:27,508
12/9/18 14:27,501
12/9/18 14:27,504
12/9/18 14:27,501
12/9/18 14:27,498
12/9/18 14:27,501
12/9/18 14:27,498
12/9/18 14:27,502
12/9/18 14:27,500
12/9/18 14:27,498
12/9/18 14:27,504
12/9/18 14:27,499
12/9/18 14:27,503
12/9/18 14:27,502
12/9/18 14:27,502
12/9/18 14:27,507
12/9/18 14:27,500
12/9/18 14:27,504
12/9/18 14:27,502
12/9/18 14:27,499
12/9/18 14:27,439
12/9/18 14:27,511
12/9/18 14:27,529
12/9/18 14:27,520
12/9/18 14:27,516
12/9/18 14:27,516
12/9/18 14:27,507
12/9/18 14:27,511
12/9/18 14:27,507
12/9/18 14:27,505
12/9/18 14:27,507
12/9/18 14:27,501
12/9/18 14:27,508
12/9/18 14:27,502
12/9/18 14:27,501
12/9/18 14:27,506
12/9/18 14:27,501
12/9/18 14:27,504
12/9/18 14:27,503
12/9/18 14:27,501
12/9/18 14:27,478
12/9/18 14:27,513
12/9/18 14:27,517
12/9/18 14:27,509
12/9/18 14:27,506
12/9/18 14:27,507
12/9/18 14:27,501
12/9/18 14:27,504
12/9/18 14:27,500
12/9/18 14:27,500
12/9/18 14:27,503
12/9/18 14:27,499
12/9/18 14:27,504
12/9/18 14:27,501
12/9/18 14:27,502
12/9/18 14:27,503
12/9/18 14:27,500
12/9/18 14:27,507
12/9/18 14:27,501
12/9/18 14:27,503
12/9/18 14:27,505
12/9/18 14:27,497
12/9/18 14:27,505
12/9/18 14:27,499
12/9/18 14:27,503
12/9/18 14:27,505
12/9/18 14:27,502
12/9/18 14:27,508
12/9/18 14:27,502
12/9/18 14:27,503
12/9/18 14:27,486
12/9/18 14:27,457
12/9/18 14:27,517
12/9/18 14:27,516
12/9/18 14:27,534
12/9/18 14:27,527
12/9/18 14:27,513
12/9/18 14:27,515
12/9/18 14:27,506
12/9/18 14:27,508
12/9/18 14:27,507
12/9/18 14:27,501
12/9/18 14:27,504
12/9/18 14:27,499
12/9/18 14:27,502
12/9/18 14:27,502
12/9/18 14:27,501
12/9/18 14:27,505
12/9/18 14:27,500
12/9/18 14:27,504
12/9/18 14:27,508
12/9/18 14:27,488
12/9/18 14:27,469
12/9/18 14:27,510
12/9/18 14:27,533
12/9/18 14:27,519
12/9/18 14:27,508
12/9/18 14:27,505
12/9/18 14:27,500
12/9/18 14:27,501
12/9/18 14:27,503
12/9/18 14:27,500
12/9/18 14:27,507
12/9/18 14:36,503
12/9/18 14:36,504
12/9/18 14:36,505
12/9/18 14:36,503
12/9/18 14:36,501
12/9/18 14:36,506
12/9/18 14:36,503
12/9/18 14:36,504
12/9/18 14:36,505
12/9/18 14:36,504
12/9/18 14:36,504
12/9/18 14:36,502
12/9/18 14:36,505
12/9/18 14:36,504
12/9/18 14:36,503
12/9/18 14:36,505
12/9/18 14:36,502
12/9/18 14:36,502
12/9/18 14:36,469
12/9/18 14:36,474
12/9/18 14:36,522
12/9/18 14:36,520
12/9/18 14:36,520
12/9/18 14:36,515
12/9/18 14:36,508
12/9/18 14:36,509
12/9/18 14:36,507
12/9/18 14:36,505
12/9/18 14:36,503
12/9/18 14:36,501
12/9/18 14:36,504
12/9/18 14:36,501
12/9/18 14:36,504
12/9/18 14:36,502
12/9/18 14:36,502
12/9/18 14:36,502
12/9/18 14:36,500
12/9/18 14:36,502
12/9/18 14:36,500
12/9/18 14:36,500
12/9/18 14:36,501
12/9/18 14:36,501
12/9/18 14:36,499
12/9/18 14:36,488
12/9/18 14:36,512
12/9/18 14:36,515
12/9/18 14:36,506
12/9/18 14:36,508
12/9/18 14:36,505
12/9/18 14:36,506
12/9/18 14:36,505
12/9/18 14:36,502
12/9/18 14:36,504
12/9/18 14:36,501
12/9/18 14:36,468
12/9/18 14:36,479
12/9/18 14:36,519
12/9/18 14:36,520
12/9/18 14:36,515
12/9/18 14:36,525
12/9/18 14:36,473
12/9/18 14:36,474
12/9/18 14:36,538
12/9/18 14:36,536
12/9/18 14:36,519
12/9/18 14:36,508
12/9/18 14:36,501
12/9/18 14:36,502
12/9/18 14:36,500
12/9/18 14:36,501
12/9/18 14:36,500
12/9/18 14:36,502
12/9/18 14:36,506
12/9/18 14:36,503
12/9/18 14:36,504
12/9/18 14:36,500
12/9/18 14:36,474
12/9/18 14:36,509
12/9/18 14:36,508
12/9/18 14:36,505
12/9/18 14:36,505
12/9/18 14:36,500
12/9/18 14:36,502
12/9/18 14:36,501
12/9/18 14:36,501
12/9/18 14:36,501
12/9/18 14:36,500
12/9/18 14:36,502
12/9/18 14:36,500
12/9/18 14:36,499
12/9/18 14:36,501
12/9/18 14:36,436
12/9/18 14:36,508
12/9/18 14:36,522
12/9/18 14:36,521
12/9/18 14:36,516
12/9/18 14:36,512
12/9/18 14:36,511
12/9/18 14:36,508
12/9/18 14:36,508
12/9/18 14:36,508
12/9/18 14:36,506
12/9/18 14:36,506
12/9/18 14:36,505
12/9/18 14:36,505
12/9/18 14:36,487
12/9/18 14:36,458
12/9/18 14:36,509
12/9/18 14:36,533
12/9/18 14:36,526
12/9/18 14:36,519
12/9/18 14:36,513
12/9/18 14:36,510
12/9/18 14:36,506
12/9/18 14:36,505
12/9/18 14:36,501
12/9/18 14:36,501
12/9/18 14:36,502
12/9/18 14:36,500
12/9/18 14:36,502
12/9/18 14:36,500
12/9/18 14:36,501
12/9/18 14:36,478
12/9/18 14:36,443
12/9/18 14:36,525
12/9/18 14:36,529
12/9/18 14:36,519
12/9/18 14:36,516
12/9/18 14:36,509
12/9/18 14:36,507
12/9/18 14:36,503
12/9/18 14:36,500
12/9/18 14:36,504
12/9/18 14:36,500
12/9/18 14:36,502
12/9/18 14:36,502
12/9/18 14:36,502
12/9/18 14:36,502
12/9/18 14:36,500
12/9/18 14:36,503
12/9/18 14:36,502
12/9/18 14:36,501
12/9/18 14:36,503
12/9/18 14:36,501
12/9/18 14:36,504
12/9/18 14:36,502
12/9/18 14:36,503
12/9/18 14:36,504
12/9/18 14:36,501
12/9/18 14:36,504
12/9/18 14:36,502
12/9/18 14:36,501
12/9/18 14:36,503
12/9/18 14:36,501
12/9/18 14:36,506
12/9/18 14:36,504
12/9/18 14:36,505
12/9/18 14:36,504
12/9/18 14:36,502
12/9/18 14:36,503
12/9/18 14:36,504
12/9/18 14:36,494
12/9/18 14:36,438
12/9/18 14:36,523
12/9/18 14:36,539
12/9/18 14:36,526
12/9/18 14:36,520
12/9/18 14:36,515
12/9/18 14:36,507
12/9/18 14:36,507
12/9/18 14:36,506
12/9/18 14:36,503
12/9/18 14:36,503
12/9/18 14:36,500
12/9/18 14:36,503
12/9/18 14:36,498
12/9/18 14:36,500
12/9/18 14:36,502
12/9/18 14:36,504
12/9/18 14:36,509
12/9/18 14:36,460
12/9/18 14:36,502
12/9/18 14:36,535
12/9/18 14:36,499
12/9/18 14:36,528
12/9/18 14:36,509
12/9/18 14:36,507
12/9/18 14:36,505
12/9/18 14:36,503
12/9/18 14:36,504
12/9/18 14:36,503
12/9/18 14:36,504
12/9/18 14:36,503
12/9/18 14:36,501
12/9/18 14:36,502
12/9/18 14:36,501
12/9/18 14:36,501
12/9/18 14:36,497
12/9/18 14:36,494
12/9/18 14:36,498
12/9/18 14:36,496
12/9/18 14:36,500
12/9/18 14:36,500
12/9/18 14:36,501
12/9/18 14:36,503
12/9/18 14:36,501
12/9/18 14:36,503
12/9/18 14:36,503
12/9/18 14:36,503
12/9/18 14:36,504
12/9/18 14:36,502
12/9/18 14:36,506
12/9/18 14:36,504
12/9/18 14:36,502
12/9/18 14:36,505
12/9/18 14:36,504
12/9/18 14:36,506
12/9/18 14:36,506
12/9/18 14:36,506
12/9/18 14:36,508
12/9/18 14:36,505
12/9/18 14:36,507
12/9/18 14:36,505
12/9/18 14:36,506
12/9/18 14:36,507
12/9/18 14:36,504
12/9/18 14:36,506
12/9/18 14:36,505
12/9/18 14:36,503
12/9/18 14:36,507
12/9/18 14:36,503
12/9/18 14:36,505
12/9/18 14:36,504
12/9/18 14:36,505
12/9/18 14:36,505
12/9/18 14:36,503
12/9/18 14:36,504
12/9/18 14:36,504
12/9/18 14:36,504
12/9/18 14:36,506
12/9/18 14:36,501
12/9/18 14:36,504
12/9/18 14:36,503
12/9/18 14:36,504
12/9/18 14:36,504
12/9/18 14:36,500
12/9/18 14:36,502
12/9/18 14:36,503
12/9/18 14:36,504
12/9/18 14:36,505
12/9/18 14:36,500
12/9/18 14:36,503
12/9/18 14:36,502
12/9/18 14:36,503
12/9/18 14:36,505
12/9/18 14:36,504
12/9/18 14:36,506
12/9/18 14:36,501
12/9/18 14:36,502
12/9/18 14:36,504
12/9/18 14:36,502
12/9/18 14:36,505
12/9/18 14:36,503
12/9/18 14:36,503
12/9/18 14:36,503
12/9/18 14:36,503
12/9/18 14:36,506
12/9/18 14:36,500
12/9/18 14:36,503
12/9/18 14:36,506
12/9/18 14:36,502
12/9/18 14:36,504
12/9/18 14:36,503
12/9/18 14:36,505
12/9/18 14:36,504
12/9/18 14:36,502
12/9/18 14:36,505
12/9/18 14:36,502
12/9/18 14:36,504
12/9/18 14:36,490
12/9/18 14:36,453
12/9/18 14:36,519
12/9/18 14:36,524
12/9/18 14:36,521
12/9/18 14:36,489
12/9/18 14:36,521
12/9/18 14:36,522
12/9/18 14:36,514
12/9/18 14:36,511
12/9/18 14:36,507
12/9/18 14:36,503
12/9/18 14:36,504
12/9/18 14:36,501
12/9/18 14:36,504
12/9/18 14:36,501
12/9/18 14:36,501
12/9/18 14:36,507
12/9/18 14:36,485
12/9/18 14:36,464
12/9/18 14:36,515
12/9/18 14:36,535
12/9/18 14:36,520
12/9/18 14:36,507
12/9/18 14:36,505
12/9/18 14:36,501
12/9/18 14:36,499
12/9/18 14:36,506
12/9/18 14:36,502
12/9/18 14:36,504
12/9/18 14:36,503
12/9/18 14:36,501
12/9/18 14:36,502
12/9/18 14:36,498
12/9/18 14:36,500
12/9/18 14:36,499
12/9/18 14:36,499
12/9/18 14:36,501
12/9/18 14:36,498
12/9/18 14:36,501
12/9/18 14:36,500
12/9/18 14:36,501
12/9/18 14:36,501
12/9/18 14:36,500
12/9/18 14:36,504
12/9/18 14:36,502
12/9/18 14:36,501
12/9/18 14:36,503
12/9/18 14:36,437
12/9/18 14:36,502
12/9/18 14:36,522
12/9/18 14:36,521
12/9/18 14:36,519
12/9/18 14:36,514
12/9/18 14:36,514
12/9/18 14:36,510
12/9/18 14:36,508
12/9/18 14:36,509
12/9/18 14:36,504
12/9/18 14:36,506
12/9/18 14:36,505
12/9/18 14:36,504
12/9/18 14:36,505
12/9/18 14:36,503
12/9/18 14:36,505
12/9/18 14:36,504
12/9/18 14:36,504
12/9/18 14:36,506
12/9/18 14:36,503
12/9/18 14:36,506
12/9/18 14:36,501
12/9/18 14:36,503
12/9/18 14:36,503
12/9/18 14:36,501
12/9/18 14:36,505
12/9/18 14:36,502
12/9/18 14:36,503
12/9/18 14:36,505
12/9/18 14:36,501
12/9/18 14:36,505
12/9/18 14:36,504
12/9/18 14:36,504
12/9/18 14:36,504
12/9/18 14:36,502
12/9/18 14:36,503
12/9/18 14:36,503
12/9/18 14:36,475
12/9/18 14:36,514
12/9/18 14:36,511
12/9/18 14:36,508
12/9/18 14:36,446
12/9/18 14:36,510
12/9/18 14:36,526
12/9/18 14:36,520
12/9/18 14:36,517
12/9/18 14:36,510
12/9/18 14:36,509
12/9/18 14:36,508
12/9/18 14:36,505
12/9/18 14:36,504
12/9/18 14:36,500
12/9/18 14:36,502
12/9/18 14:36,503
12/9/18 14:36,499
12/9/18 14:36,503
12/9/18 14:36,501
12/9/18 14:36,502
12/9/18 14:36,501
12/9/18 14:36,502
12/9/18 14:36,502
12/9/18 14:36,501
12/9/18 14:36,505
12/9/18 14:36,504
12/9/18 14:36,502
12/9/18 14:36,502
12/9/18 14:36,503
12/9/18 14:36,503
12/9/18 14:36,501
12/9/18 14:36,502
12/9/18 14:36,505
12/9/18 14:36,502
12/9/18 14:36,505
12/9/18 14:36,503
12/9/18 14:36,503
12/9/18 14:36,503
12/9/18 14:36,501
12/9/18 14:36,502
12/9/18 14:36,502
12/9/18 14:36,503
12/9/18 14:36,505
12/9/18 14:36,503
12/9/18 14:36,504
12/9/18 14:36,503
12/9/18 14:36,501
12/9/18 14:36,515
12/9/18 14:36,466
12/9/18 14:36,476
12/9/18 14:36,531
12/9/18 14:36,533
12/9/18 14:36,521
12/9/18 14:36,504
12/9/18 14:36,506
12/9/18 14:36,503
12/9/18 14:36,503
12/9/18 14:36,485
12/9/18 14:36,469
12/9/18 14:36,499
12/9/18 14:36,526
12/9/18 14:36,525
12/9/18 14:36,518
12/9/18 14:36,512
12/9/18 14:36,510
12/9/18 14:36,505
12/9/18 14:36,504
12/9/18 14:36,503
12/9/18 14:36,498
12/9/18 14:36,499
12/9/18 14:36,498
12/9/18 14:36,498
12/9/18 14:36,499
12/9/18 14:36,497
12/9/18 14:36,500
12/9/18 14:36,499
12/9/18 14:36,500
12/9/18 14:36,500
12/9/18 14:36,499
12/9/18 14:36,503
12/9/18 14:36,503
12/9/18 14:36,501
12/9/18 14:36,503
12/9/18 14:36,502
12/9/18 14:36,502
12/9/18 14:36,502
12/9/18 14:36,504
12/9/18 14:36,504
12/9/18 14:36,504
12/9/18 14:36,506
12/9/18 14:36,504
12/9/18 14:36,505
12/9/18 14:36,505
12/9/18 14:36,503
12/9/18 14:36,507
12/9/18 14:36,504
12/9/18 14:36,506
12/9/18 14:36,506
12/9/18 14:36,505
12/9/18 14:36,507
12/9/18 14:36,503
12/9/18 14:36,481
12/9/18 14:36,510
12/9/18 14:36,453
12/9/18 14:36,521
12/9/18 14:36,526
12/9/18 14:36,523
12/9/18 14:36,517
12/9/18 14:36,512
12/9/18 14:36,512
12/9/18 14:36,505
12/9/18 14:36,506
12/9/18 14:36,504
12/9/18 14:36,500
12/9/18 14:36,502
12/9/18 14:36,501
12/9/18 14:36,502
12/9/18 14:36,500
12/9/18 14:36,500
12/9/18 14:36,504
12/9/18 14:36,501
12/9/18 14:36,504
12/9/18 14:36,502
12/9/18 14:36,501
12/9/18 14:36,503
12/9/18 14:36,503
12/9/18 14:36,503
12/9/18 14:36,503
12/9/18 14:36,503
12/9/18 14:36,505
12/9/18 14:36,503
12/9/18 14:36,505
12/9/18 14:36,504
12/9/18 14:36,503
12/9/18 14:36,505
12/9/18 14:36,503
12/9/18 14:36,505
12/9/18 14:36,501
12/9/18 14:36,503
12/9/18 14:36,505
12/9/18 14:36,502
12/9/18 14:36,503
12/9/18 14:36,502
12/9/18 14:36,502
12/9/18 14:36,505
12/9/18 14:36,501
12/9/18 14:36,504
12/9/18 14:36,501
12/9/18 14:36,504
12/9/18 14:36,504
12/9/18 14:36,501
12/9/18 14:36,505
12/9/18 14:36,502
12/9/18 14:36,502
12/9/18 14:36,505
12/9/18 14:36,502
12/9/18 14:36,506
12/9/18 14:36,502
12/9/18 14:36,503
12/9/18 14:36,492
12/9/18 14:36,455
12/9/18 14:36,519
12/9/18 14:36,522
12/9/18 14:36,496
12/9/18 14:36,525
12/9/18 14:36,521
12/9/18 14:36,515
12/9/18 14:36,510
12/9/18 14:36,510
12/9/18 14:36,509
12/9/18 14:36,520
12/9/18 14:36,461
12/9/18 14:36,490
12/9/18 14:36,534
12/9/18 14:36,526
12/9/18 14:36,504
12/9/18 14:36,504
12/9/18 14:36,501
12/9/18 14:36,503
12/9/18 14:36,504
12/9/18 14:36,500
12/9/18 14:36,506
12/9/18 14:36,500
12/9/18 14:36,501
12/9/18 14:36,502
12/9/18 14:36,501
12/9/18 14:36,502
12/9/18 14:36,498
12/9/18 14:36,499
12/9/18 14:36,501
12/9/18 14:36,499
12/9/18 14:36,500
12/9/18 14:36,498
12/9/18 14:36,502
12/9/18 14:36,501
12/9/18 14:36,500
12/9/18 14:36,501
12/9/18 14:36,501
12/9/18 14:36,468
12/9/18 14:36,481
12/9/18 14:36,519
12/9/18 14:36,521
12/9/18 14:36,516
12/9/18 14:36,513
12/9/18 14:36,509
12/9/18 14:36,497
12/9/18 14:36,504
12/9/18 14:36,513
12/9/18 14:36,515
12/9/18 14:36,508
12/9/18 14:36,508
12/9/18 14:36,507
12/9/18 14:36,503
12/9/18 14:36,506
12/9/18 14:36,503
12/9/18 14:36,503
12/9/18 14:36,504
12/9/18 14:36,502
12/9/18 14:36,505
12/9/18 14:36,502
12/9/18 14:36,503
12/9/18 14:36,504
12/9/18 14:36,503
12/9/18 14:36,505
12/9/18 14:36,502
12/9/18 14:36,505
12/9/18 14:36,505
12/9/18 14:36,503
12/9/18 14:36,504
12/9/18 14:36,503
12/9/18 14:36,504
12/9/18 14:36,506
12/9/18 14:36,502
12/9/18 14:36,504
12/9/18 14:45,504
12/9/18 14:45,505
12/9/18 14:45,504
12/9/18 14:45,505
12/9/18 14:45,504
12/9/18 14:45,503
12/9/18 14:45,505
12/9/18 14:45,504
12/9/18 14:45,505
12/9/18 14:45,504
12/9/18 14:45,504
12/9/18 14:45,504
12/9/18 14:45,502
12/9/18 14:45,508
12/9/18 14:45,503
12/9/18 14:45,464
12/9/18 14:45,517
12/9/18 14:45,534
12/9/18 14:45,520
12/9/18 14:45,506
12/9/18 14:45,506
12/9/18 14:45,501
12/9/18 14:45,501
12/9/18 14:45,503
12/9/18 14:45,506
12/9/18 14:45,503
12/9/18 14:45,503
12/9/18 14:45,499
12/9/18 14:45,501
12/9/18 14:45,502
12/9/18 14:45,498
12/9/18 14:45,494
12/9/18 14:45,493
12/9/18 14:45,497
12/9/18 14:45,464
12/9/18 14:45,456
12/9/18 14:45,529
12/9/18 14:45,527
12/9/18 14:45,525
12/9/18 14:45,518
12/9/18 14:45,514
12/9/18 14:45,513
12/9/18 14:45,506
12/9/18 14:45,508
12/9/18 14:45,504
12/9/18 14:45,503
12/9/18 14:45,505
12/9/18 14:45,502
12/9/18 14:45,503
12/9/18 14:45,505
12/9/18 14:45,505
12/9/18 14:45,505
12/9/18 14:45,502
12/9/18 14:45,506
12/9/18 14:45,504
12/9/18 14:45,503
12/9/18 14:45,506
12/9/18 14:45,502
12/9/18 14:45,505
12/9/18 14:45,503
12/9/18 14:45,504
12/9/18 14:45,504
12/9/18 14:45,501
12/9/18 14:45,505
12/9/18 14:45,502
12/9/18 14:45,503
12/9/18 14:45,504
12/9/18 14:45,502
12/9/18 14:45,504
12/9/18 14:45,502
12/9/18 14:45,503
12/9/18 14:45,504
12/9/18 14:45,500
12/9/18 14:45,504
12/9/18 14:45,502
12/9/18 14:45,503
12/9/18 14:45,504
12/9/18 14:45,500
12/9/18 14:45,505
12/9/18 14:45,501
12/9/18 14:45,505
12/9/18 14:45,505
12/9/18 14:45,501
12/9/18 14:45,504
12/9/18 14:45,501
12/9/18 14:45,503
12/9/18 14:45,505
12/9/18 14:45,501
12/9/18 14:45,506
12/9/18 14:45,503
12/9/18 14:45,504
12/9/18 14:45,503
12/9/18 14:45,501
12/9/18 14:45,504
12/9/18 14:45,503
12/9/18 14:45,503
12/9/18 14:45,504
12/9/18 14:45,502
12/9/18 14:45,505
12/9/18 14:45,503
12/9/18 14:45,479
12/9/18 14:45,513
12/9/18 14:45,513
12/9/18 14:45,510
12/9/18 14:45,506
12/9/18 14:45,507
12/9/18 14:45,505
12/9/18 14:45,503
12/9/18 14:45,503
12/9/18 14:45,502
12/9/18 14:45,502
12/9/18 14:45,502
12/9/18 14:45,501
12/9/18 14:45,505
12/9/18 14:45,501
12/9/18 14:45,503
12/9/18 14:45,503
12/9/18 14:45,500
12/9/18 14:45,503
12/9/18 14:45,502
12/9/18 14:45,503
12/9/18 14:45,504
12/9/18 14:45,502
12/9/18 14:45,504
12/9/18 14:45,503
12/9/18 14:45,506
12/9/18 14:45,504
12/9/18 14:45,503
12/9/18 14:45,504
12/9/18 14:45,503
12/9/18 14:45,504
12/9/18 14:45,504
12/9/18 14:45,503
12/9/18 14:45,508
12/9/18 14:45,506
12/9/18 14:45,464
12/9/18 14:45,501
12/9/18 14:45,535
12/9/18 14:45,528
12/9/18 14:45,505
12/9/18 14:45,508
12/9/18 14:45,503
12/9/18 14:45,500
12/9/18 14:45,505
12/9/18 14:45,499
12/9/18 14:45,442
12/9/18 14:45,505
12/9/18 14:45,522
12/9/18 14:45,522
12/9/18 14:45,513
12/9/18 14:45,508
12/9/18 14:45,507
12/9/18 14:45,503
12/9/18 14:45,505
12/9/18 14:45,500
12/9/18 14:45,487
12/9/18 14:45,501
12/9/18 14:45,511
12/9/18 14:45,508
12/9/18 14:45,505
12/9/18 14:45,505
12/9/18 14:45,501
12/9/18 14:45,502
12/9/18 14:45,503
12/9/18 14:45,503
12/9/18 14:45,504
12/9/18 14:45,502
12/9/18 14:45,502
12/9/18 14:45,504
12/9/18 14:45,502
12/9/18 14:45,506
12/9/18 14:45,504
12/9/18 14:45,505
12/9/18 14:45,506
12/9/18 14:45,504
12/9/18 14:45,508
12/9/18 14:45,506
12/9/18 14:45,506
12/9/18 14:45,505
12/9/18 14:45,503
12/9/18 14:45,507
12/9/18 14:45,501
12/9/18 14:45,505
12/9/18 14:45,505
12/9/18 14:45,503
12/9/18 14:45,505
12/9/18 14:45,502
12/9/18 14:45,503
12/9/18 14:45,503
12/9/18 14:45,502
12/9/18 14:45,502
12/9/18 14:45,452
12/9/18 14:45,494
12/9/18 14:45,519
12/9/18 14:45,519
12/9/18 14:45,517
12/9/18 14:45,512
12/9/18 14:45,509
12/9/18 14:45,509
12/9/18 14:45,505
12/9/18 14:45,507
12/9/18 14:45,502
12/9/18 14:45,504
12/9/18 14:45,506
12/9/18 14:45,501
12/9/18 14:45,504
12/9/18 14:45,501
12/9/18 14:45,503
12/9/18 14:45,503
12/9/18 14:45,503
12/9/18 14:45,505
12/9/18 14:45,502
12/9/18 14:45,503
12/9/18 14:45,482
12/9/18 14:45,503
12/9/18 14:45,516
12/9/18 14:45,510
12/9/18 14:45,509
12/9/18 14:45,505
12/9/18 14:45,503
12/9/18 14:45,503
12/9/18 14:45,498
12/9/18 14:45,503
12/9/18 14:45,503
12/9/18 14:45,502
12/9/18 14:45,503
12/9/18 14:45,500
12/9/18 14:45,504
12/9/18 14:45,498
12/9/18 14:45,446
12/9/18 14:45,514
12/9/18 14:45,519
12/9/18 14:45,518
12/9/18 14:45,515
12/9/18 14:45,511
12/9/18 14:45,511
12/9/18 14:45,505
12/9/18 14:45,507
12/9/18 14:45,503
12/9/18 14:45,503
12/9/18 14:45,503
12/9/18 14:45,501
12/9/18 14:45,504
12/9/18 14:45,502
12/9/18 14:45,502
12/9/18 14:45,502
12/9/18 14:45,501
12/9/18 14:45,504
12/9/18 14:45,502
12/9/18 14:45,502
12/9/18 14:45,504
12/9/18 14:45,503
12/9/18 14:45,506
12/9/18 14:45,520
12/9/18 14:45,456
12/9/18 14:45,480
12/9/18 14:45,533
12/9/18 14:45,532
12/9/18 14:45,510
12/9/18 14:45,507
12/9/18 14:45,503
12/9/18 14:45,502
12/9/18 14:45,443
12/9/18 14:45,485
12/9/18 14:45,531
12/9/18 14:45,528
12/9/18 14:45,521
12/9/18 14:45,514
12/9/18 14:45,511
12/9/18 14:45,508
12/9/18 14:45,505
12/9/18 14:45,502
12/9/18 14:45,502
12/9/18 14:45,497
12/9/18 14:45,499
12/9/18 14:45,499
12/9/18 14:45,496
12/9/18 14:45,499
12/9/18 14:45,498
12/9/18 14:45,500
12/9/18 14:45,502
12/9/18 14:45,500
12/9/18 14:45,503
12/9/18 14:45,499
12/9/18 14:45,501
12/9/18 14:45,502
12/9/18 14:45,500
12/9/18 14:45,505
12/9/18 14:45,500
12/9/18 14:45,503
12/9/18 14:45,503
12/9/18 14:45,503
12/9/18 14:45,507
12/9/18 14:45,503
12/9/18 14:45,504
12/9/18 14:45,507
12/9/18 14:45,505
12/9/18 14:45,506
12/9/18 14:45,507
12/9/18 14:45,505
12/9/18 14:45,506
12/9/18 14:45,503
12/9/18 14:45,506
12/9/18 14:45,504
12/9/18 14:45,505
12/9/18 14:45,505
12/9/18 14:45,503
12/9/18 14:45,506
12/9/18 14:45,503
12/9/18 14:45,503
12/9/18 14:45,493
12/9/18 14:45,512
12/9/18 14:45,455
12/9/18 14:45,517
12/9/18 14:45,526
12/9/18 14:45,522
12/9/18 14:45,513
12/9/18 14:45,512
12/9/18 14:45,507
12/9/18 14:45,507
12/9/18 14:45,506
12/9/18 14:45,502
12/9/18 14:45,503
12/9/18 14:45,500
12/9/18 14:45,502
12/9/18 14:45,503
12/9/18 14:45,501
12/9/18 14:45,502
12/9/18 14:45,499
12/9/18 14:45,503
12/9/18 14:45,502
12/9/18 14:45,502
12/9/18 14:45,504
12/9/18 14:45,502
12/9/18 14:45,503
12/9/18 14:45,503
12/9/18 14:45,502
12/9/18 14:45,501
12/9/18 14:45,500
12/9/18 14:45,505
12/9/18 14:45,502
12/9/18 14:45,502
12/9/18 14:45,506
12/9/18 14:45,502
12/9/18 14:45,504
12/9/18 14:45,502
12/9/18 14:45,504
12/9/18 14:45,503
12/9/18 14:45,500
12/9/18 14:45,505
12/9/18 14:45,503
12/9/18 14:45,503
12/9/18 14:45,504
12/9/18 14:45,501
12/9/18 14:45,505
12/9/18 14:45,503
12/9/18 14:45,503
12/9/18 14:45,504
12/9/18 14:45,502
12/9/18 14:45,504
12/9/18 14:45,477
12/9/18 14:45,454
12/9/18 14:45,518
12/9/18 14:45,526
12/9/18 14:45,523
12/9/18 14:45,517
12/9/18 14:45,515
12/9/18 14:45,511
12/9/18 14:45,506
12/9/18 14:45,507
12/9/18 14:45,503
12/9/18 14:45,503
12/9/18 14:45,502
12/9/18 14:45,500
12/9/18 14:45,502
12/9/18 14:45,501
12/9/18 14:45,500
12/9/18 14:45,503
12/9/18 14:45,519
12/9/18 14:45,455
12/9/18 14:45,485
12/9/18 14:45,535
12/9/18 14:45,527
12/9/18 14:45,511
12/9/18 14:45,502
12/9/18 14:45,501
12/9/18 14:45,503
12/9/18 14:45,505
12/9/18 14:45,502
12/9/18 14:45,504
12/9/18 14:45,502
12/9/18 14:45,507
12/9/18 14:45,504
12/9/18 14:45,502
12/9/18 14:45,503
12/9/18 14:45,500
12/9/18 14:45,501
12/9/18 14:45,497
12/9/18 14:45,498
12/9/18 14:45,500
12/9/18 14:45,498
12/9/18 14:45,500
12/9/18 14:45,501
12/9/18 14:45,500
12/9/18 14:45,503
12/9/18 14:45,500
12/9/18 14:45,503
12/9/18 14:45,503
12/9/18 14:45,501
12/9/18 14:45,504
12/9/18 14:45,503
12/9/18 14:45,505
12/9/18 14:45,504
12/9/18 14:45,502
12/9/18 14:45,504
12/9/18 14:45,503
12/9/18 14:45,506
12/9/18 14:45,505
12/9/18 14:45,505
12/9/18 14:45,506
12/9/18 14:45,504
12/9/18 14:45,507
12/9/18 14:45,506
12/9/18 14:45,493
12/9/18 14:45,502
12/9/18 14:45,512
12/9/18 14:45,450
12/9/18 14:45,512
12/9/18 14:45,526
12/9/18 14:45,525
12/9/18 14:45,517
12/9/18 14:45,514
12/9/18 14:45,510
12/9/18 14:45,505
12/9/18 14:45,506
12/9/18 14:45,503
12/9/18 14:45,504
12/9/18 14:45,502
12/9/18 14:45,502
12/9/18 14:45,501
12/9/18 14:45,502
12/9/18 14:45,504
12/9/18 14:45,502
12/9/18 14:45,501
12/9/18 14:45,503
12/9/18 14:45,499
12/9/18 14:45,504
12/9/18 14:45,503
12/9/18 14:45,501
12/9/18 14:45,504
12/9/18 14:45,499
12/9/18 14:45,503
12/9/18 14:45,502
12/9/18 14:45,504
12/9/18 14:45,504
12/9/18 14:45,502
12/9/18 14:45,505
12/9/18 14:45,503
12/9/18 14:45,502
12/9/18 14:45,503
12/9/18 14:45,501
12/9/18 14:45,506
12/9/18 14:45,502
12/9/18 14:45,504
12/9/18 14:45,503
12/9/18 14:45,503
12/9/18 14:45,505
12/9/18 14:45,503
12/9/18 14:45,503
12/9/18 14:45,505
12/9/18 14:45,503
12/9/18 14:45,503
12/9/18 14:45,503
12/9/18 14:45,504
12/9/18 14:45,503
12/9/18 14:45,502
12/9/18 14:45,506
12/9/18 14:45,503
12/9/18 14:45,505
12/9/18 14:45,504
12/9/18 14:45,501
12/9/18 14:45,504
12/9/18 14:45,502
12/9/18 14:45,477
12/9/18 14:45,513
12/9/18 14:45,512
12/9/18 14:45,512
12/9/18 14:45,507
12/9/18 14:45,507
12/9/18 14:45,506
12/9/18 14:45,502
12/9/18 14:45,505
12/9/18 14:45,503
12/9/18 14:45,504
12/9/18 14:45,504
12/9/18 14:45,502
12/9/18 14:45,503
12/9/18 14:45,500
12/9/18 14:45,502
12/9/18 14:45,503
12/9/18 14:45,502
12/9/18 14:45,509
12/9/18 14:45,495
12/9/18 14:45,466
12/9/18 14:45,517
12/9/18 14:45,533
12/9/18 14:45,520
12/9/18 14:45,506
12/9/18 14:45,509
12/9/18 14:45,506
12/9/18 14:45,496
12/9/18 14:45,503
12/9/18 14:45,496
12/9/18 14:45,505
12/9/18 14:45,502
12/9/18 14:45,500
12/9/18 14:45,506
12/9/18 14:45,502
12/9/18 14:45,502
12/9/18 14:45,500
12/9/18 14:45,500
12/9/18 14:45,501
12/9/18 14:45,498
12/9/18 14:45,501
12/9/18 14:45,500
12/9/18 14:45,500
12/9/18 14:45,502
12/9/18 14:45,499
12/9/18 14:45,501
12/9/18 14:45,501
12/9/18 14:45,502
12/9/18 14:45,503
12/9/18 14:45,502
12/9/18 14:45,505
12/9/18 14:45,502
12/9/18 14:45,503
12/9/18 14:45,487
12/9/18 14:45,515
12/9/18 14:45,513
12/9/18 14:45,511
12/9/18 14:45,494
12/9/18 14:45,467
12/9/18 14:45,518
12/9/18 14:45,525
12/9/18 14:45,520
12/9/18 14:45,516
12/9/18 14:45,516
12/9/18 14:45,507
12/9/18 14:45,509
12/9/18 14:45,505
12/9/18 14:45,505
12/9/18 14:45,507
12/9/18 14:45,502
12/9/18 14:45,505
12/9/18 14:45,504
12/9/18 14:45,502
12/9/18 14:45,502
12/9/18 14:45,501
12/9/18 14:45,503
12/9/18 14:45,502
12/9/18 14:45,502
12/9/18 14:45,502
12/9/18 14:45,502
12/9/18 14:45,504
12/9/18 14:45,503
12/9/18 14:45,501
12/9/18 14:45,505
12/9/18 14:45,503
12/9/18 14:45,503
12/9/18 14:45,501
12/9/18 14:45,502
12/9/18 14:45,504
12/9/18 14:45,500
12/9/18 14:45,503
12/9/18 14:45,500
12/9/18 14:45,503
12/9/18 14:45,502
12/9/18 14:45,502
12/9/18 14:45,505
12/9/18 14:45,504
12/9/18 14:45,505
12/9/18 14:45,504
12/9/18 14:45,503
12/9/18 14:45,505
12/9/18 14:45,503
12/9/18 14:45,504
12/9/18 14:45,504
12/9/18 14:45,503
12/9/18 14:45,505
12/9/18 14:45,502
12/9/18 14:45,504
12/9/18 14:45,503
12/9/18 14:45,501
12/9/18 14:45,506
12/9/18 14:45,502
12/9/18 14:45,502
12/9/18 14:45,502
12/9/18 14:45,503
12/9/18 14:45,504
12/9/18 14:45,502
12/9/18 14:54,503
12/9/18 14:54,504
12/9/18 14:54,504
12/9/18 14:54,483
12/9/18 14:54,449
12/9/18 14:54,504
12/9/18 14:54,529
12/9/18 14:54,524
12/9/18 14:54,521
12/9/18 14:54,517
12/9/18 14:54,510
12/9/18 14:54,507
12/9/18 14:54,506
12/9/18 14:54,504
12/9/18 14:54,505
12/9/18 14:54,499
12/9/18 14:54,504
12/9/18 14:54,501
12/9/18 14:54,502
12/9/18 14:54,502
12/9/18 14:54,501
12/9/18 14:54,503
12/9/18 14:54,500
12/9/18 14:54,499
12/9/18 14:54,500
12/9/18 14:54,499
12/9/18 14:54,501
12/9/18 14:54,500
12/9/18 14:54,502
12/9/18 14:54,502
12/9/18 14:54,501
12/9/18 14:54,509
12/9/18 14:54,489
12/9/18 14:54,466
12/9/18 14:54,521
12/9/18 14:54,531
12/9/18 14:54,524
12/9/18 14:54,506
12/9/18 14:54,505
12/9/18 14:54,501
12/9/18 14:54,501
12/9/18 14:54,508
12/9/18 14:54,505
12/9/18 14:54,501
12/9/18 14:54,504
12/9/18 14:54,504
12/9/18 14:54,503
12/9/18 14:54,499
12/9/18 14:54,502
12/9/18 14:54,501
12/9/18 14:54,499
12/9/18 14:54,502
12/9/18 14:54,501
12/9/18 14:54,502
12/9/18 14:54,503
12/9/18 14:54,500
12/9/18 14:54,503
12/9/18 14:54,500
12/9/18 14:54,504
12/9/18 14:54,503
12/9/18 14:54,502
12/9/18 14:54,504
12/9/18 14:54,503
12/9/18 14:54,506
12/9/18 14:54,504
12/9/18 14:54,504
12/9/18 14:54,507
12/9/18 14:54,504
12/9/18 14:54,506
12/9/18 14:54,506
12/9/18 14:54,505
12/9/18 14:54,507
12/9/18 14:54,505
12/9/18 14:54,507
12/9/18 14:54,504
12/9/18 14:54,503
12/9/18 14:54,448
12/9/18 14:54,474
12/9/18 14:54,527
12/9/18 14:54,530
12/9/18 14:54,524
12/9/18 14:54,519
12/9/18 14:54,513
12/9/18 14:54,511
12/9/18 14:54,508
12/9/18 14:54,506
12/9/18 14:54,507
12/9/18 14:54,502
12/9/18 14:54,504
12/9/18 14:54,501
12/9/18 14:54,502
12/9/18 14:54,503
12/9/18 14:54,500
12/9/18 14:54,503
12/9/18 14:54,503
12/9/18 14:54,502
12/9/18 14:54,504
12/9/18 14:54,502
12/9/18 14:54,505
12/9/18 14:54,504
12/9/18 14:54,504
12/9/18 14:54,505
12/9/18 14:54,501
12/9/18 14:54,505
12/9/18 14:54,501
12/9/18 14:54,502
12/9/18 14:54,501
12/9/18 14:54,500
12/9/18 14:54,502
12/9/18 14:54,501
12/9/18 14:54,501
12/9/18 14:54,503
12/9/18 14:54,501
12/9/18 14:54,503
12/9/18 14:54,501
12/9/18 14:54,501
12/9/18 14:54,503
12/9/18 14:54,500
12/9/18 14:54,505
12/9/18 14:54,503
12/9/18 14:54,505
12/9/18 14:54,505
12/9/18 14:54,492
12/9/18 14:54,499
12/9/18 14:54,513
12/9/18 14:54,512
12/9/18 14:54,507
12/9/18 14:54,498
12/9/18 14:54,462
12/9/18 14:54,514
12/9/18 14:54,521
12/9/18 14:54,519
12/9/18 14:54,516
12/9/18 14:54,515
12/9/18 14:54,509
12/9/18 14:54,510
12/9/18 14:54,504
12/9/18 14:54,502
12/9/18 14:54,504
12/9/18 14:54,500
12/9/18 14:54,502
12/9/18 14:54,501
12/9/18 14:54,500
12/9/18 14:54,502
12/9/18 14:54,500
12/9/18 14:54,500
12/9/18 14:54,501
12/9/18 14:54,501
12/9/18 14:54,503
12/9/18 14:54,501
12/9/18 14:54,503
12/9/18 14:54,509
12/9/18 14:54,481
12/9/18 14:54,471
12/9/18 14:54,522
12/9/18 14:54,536
12/9/18 14:54,522
12/9/18 14:54,513
12/9/18 14:54,509
12/9/18 14:54,504
12/9/18 14:54,505
12/9/18 14:54,502
12/9/18 14:54,498
12/9/18 14:54,499
12/9/18 14:54,498
12/9/18 14:54,501
12/9/18 14:54,499
12/9/18 14:54,494
12/9/18 14:54,470
12/9/18 14:54,518
12/9/18 14:54,524
12/9/18 14:54,519
12/9/18 14:54,514
12/9/18 14:54,510
12/9/18 14:54,506
12/9/18 14:54,505
12/9/18 14:54,502
12/9/18 14:54,502
12/9/18 14:54,500
12/9/18 14:54,500
12/9/18 14:54,501
12/9/18 14:54,498
12/9/18 14:54,501
12/9/18 14:54,502
12/9/18 14:54,501
12/9/18 14:54,502
12/9/18 14:54,500
12/9/18 14:54,502
12/9/18 14:54,504
12/9/18 14:54,503
12/9/18 14:54,504
12/9/18 14:54,503
12/9/18 14:54,505
12/9/18 14:54,505
12/9/18 14:54,503
12/9/18 14:54,508
12/9/18 14:54,504
12/9/18 14:54,505
12/9/18 14:54,504
12/9/18 14:54,502
12/9/18 14:54,506
12/9/18 14:54,503
12/9/18 14:54,503
12/9/18 14:54,506
12/9/18 14:54,503
12/9/18 14:54,503
12/9/18 14:54,452
12/9/18 14:54,493
12/9/18 14:54,531
12/9/18 14:54,525
12/9/18 14:54,522
12/9/18 14:54,515
12/9/18 14:54,511
12/9/18 14:54,507
12/9/18 14:54,504
12/9/18 14:54,505
12/9/18 14:54,501
12/9/18 14:54,502
12/9/18 14:54,502
12/9/18 14:54,501
12/9/18 14:54,503
12/9/18 14:54,500
12/9/18 14:54,499
12/9/18 14:54,500
12/9/18 14:54,501
12/9/18 14:54,504
12/9/18 14:54,503
12/9/18 14:54,505
12/9/18 14:54,504
12/9/18 14:54,503
12/9/18 14:54,502
12/9/18 14:54,484
12/9/18 14:54,476
12/9/18 14:54,501
12/9/18 14:54,526
12/9/18 14:54,526
12/9/18 14:54,517
12/9/18 14:54,513
12/9/18 14:54,508
12/9/18 14:54,505
12/9/18 14:54,505
12/9/18 14:54,501
12/9/18 14:54,502
12/9/18 14:54,503
12/9/18 14:54,502
12/9/18 14:54,503
12/9/18 14:54,499
12/9/18 14:54,503
12/9/18 14:54,504
12/9/18 14:54,503
12/9/18 14:54,503
12/9/18 14:54,500
12/9/18 14:54,502
12/9/18 14:54,502
12/9/18 14:54,502
12/9/18 14:54,503
12/9/18 14:54,456
12/9/18 14:54,499
12/9/18 14:54,519
12/9/18 14:54,508
12/9/18 14:54,529
12/9/18 14:54,520
12/9/18 14:54,516
12/9/18 14:54,508
12/9/18 14:54,506
12/9/18 14:54,506
12/9/18 14:54,502
12/9/18 14:54,503
12/9/18 14:54,501
12/9/18 14:54,505
12/9/18 14:54,499
12/9/18 14:54,461
12/9/18 14:54,505
12/9/18 14:54,532
12/9/18 14:54,524
12/9/18 14:54,505
12/9/18 14:54,503
12/9/18 14:54,501
12/9/18 14:54,504
12/9/18 14:54,503
12/9/18 14:54,501
12/9/18 14:54,502
12/9/18 14:54,508
12/9/18 14:54,505
12/9/18 14:54,500
12/9/18 14:54,500
12/9/18 14:54,497
12/9/18 14:54,500
12/9/18 14:54,499
12/9/18 14:54,498
12/9/18 14:54,500
12/9/18 14:54,498
12/9/18 14:54,504
12/9/18 14:54,500
12/9/18 14:54,503
12/9/18 14:54,501
12/9/18 14:54,499
12/9/18 14:54,504
12/9/18 14:54,500
12/9/18 14:54,504
12/9/18 14:54,505
12/9/18 14:54,504
12/9/18 14:54,505
12/9/18 14:54,477
12/9/18 14:54,515
12/9/18 14:54,515
12/9/18 14:54,511
12/9/18 14:54,512
12/9/18 14:54,506
12/9/18 14:54,507
12/9/18 14:54,505
12/9/18 14:54,504
12/9/18 14:54,507
12/9/18 14:54,505
12/9/18 14:54,505
12/9/18 14:54,503
12/9/18 14:54,503
12/9/18 14:54,505
12/9/18 14:54,503
12/9/18 14:54,503
12/9/18 14:54,503
12/9/18 14:54,504
12/9/18 14:54,503
12/9/18 14:54,502
12/9/18 14:54,505
12/9/18 14:54,502
12/9/18 14:54,494
12/9/18 14:54,457
12/9/18 14:54,514
12/9/18 14:54,522
12/9/18 14:54,519
12/9/18 14:54,517
12/9/18 14:54,512
12/9/18 14:54,510
12/9/18 14:54,509
12/9/18 14:54,504
12/9/18 14:54,504
12/9/18 14:54,505
12/9/18 14:54,504
12/9/18 14:54,504
12/9/18 14:54,502
12/9/18 14:54,501
12/9/18 14:54,505
12/9/18 14:54,501
12/9/18 14:54,506
12/9/18 14:54,503
12/9/18 14:54,501
12/9/18 14:54,502
12/9/18 14:54,500
12/9/18 14:54,503
12/9/18 14:54,501
12/9/18 14:54,503
12/9/18 14:54,503
12/9/18 14:54,500
12/9/18 14:54,504
12/9/18 14:54,476
12/9/18 14:54,509
12/9/18 14:54,515
12/9/18 14:54,509
12/9/18 14:54,509
12/9/18 14:54,505
12/9/18 14:54,505
12/9/18 14:54,504
12/9/18 14:54,503
12/9/18 14:54,504
12/9/18 14:54,501
12/9/18 14:54,502
12/9/18 14:54,503
12/9/18 14:54,501
12/9/18 14:54,503
12/9/18 14:54,501
12/9/18 14:54,502
12/9/18 14:54,502
12/9/18 14:54,503
12/9/18 14:54,507
12/9/18 14:54,502
12/9/18 14:54,503
12/9/18 14:54,504
12/9/18 14:54,503
12/9/18 14:54,504
12/9/18 14:54,504
12/9/18 14:54,503
12/9/18 14:54,503
12/9/18 14:54,503
12/9/18 14:54,506
12/9/18 14:54,501
12/9/18 14:54,505
12/9/18 14:54,504
12/9/18 14:54,503
12/9/18 14:54,504
12/9/18 14:54,517
12/9/18 14:54,457
12/9/18 14:54,492
12/9/18 14:54,538
12/9/18 14:54,527
12/9/18 14:54,509
12/9/18 14:54,504
12/9/18 14:54,505
12/9/18 14:54,502
12/9/18 14:54,506
12/9/18 14:54,501
12/9/18 14:54,499
12/9/18 14:54,503
12/9/18 14:54,504
12/9/18 14:54,505
12/9/18 14:54,501
12/9/18 14:54,503
12/9/18 14:54,499
12/9/18 14:54,499
12/9/18 14:54,502
12/9/18 14:54,500
12/9/18 14:54,501
12/9/18 14:54,458
12/9/18 14:54,484
12/9/18 14:54,518
12/9/18 14:54,518
12/9/18 14:54,519
12/9/18 14:54,514
12/9/18 14:54,509
12/9/18 14:54,509
12/9/18 14:54,506
12/9/18 14:54,506
12/9/18 14:54,503
12/9/18 14:54,504
12/9/18 14:54,504
12/9/18 14:54,494
12/9/18 14:54,497
12/9/18 14:54,514
12/9/18 14:54,513
12/9/18 14:54,511
12/9/18 14:54,508
12/9/18 14:54,507
12/9/18 14:54,503
12/9/18 14:54,504
12/9/18 14:54,505
12/9/18 14:54,502
12/9/18 14:54,503
12/9/18 14:54,502
12/9/18 14:54,504
12/9/18 14:54,502
12/9/18 14:54,501
12/9/18 14:54,505
12/9/18 14:54,501
12/9/18 14:54,503
12/9/18 14:54,506
12/9/18 14:54,503
12/9/18 14:54,504
12/9/18 14:54,502
12/9/18 14:54,503
12/9/18 14:54,504
12/9/18 14:54,501
12/9/18 14:54,503
12/9/18 14:54,502
12/9/18 14:54,503
12/9/18 14:54,502
12/9/18 14:54,503
12/9/18 14:54,506
12/9/18 14:54,501
12/9/18 14:54,503
12/9/18 14:54,504
12/9/18 14:54,504
12/9/18 14:54,505
12/9/18 14:54,502
12/9/18 14:54,509
12/9/18 14:54,503
12/9/18 14:54,504
12/9/18 14:54,504
12/9/18 14:54,502
12/9/18 14:54,505
12/9/18 14:54,503
12/9/18 14:54,504
12/9/18 14:54,504
12/9/18 14:54,501
12/9/18 14:54,504
12/9/18 14:54,503
12/9/18 14:54,500
12/9/18 14:54,444
12/9/18 14:54,498
12/9/18 14:54,520
12/9/18 14:54,518
12/9/18 14:54,517
12/9/18 14:54,489
12/9/18 14:54,517
12/9/18 14:54,519
12/9/18 14:54,511
12/9/18 14:54,507
12/9/18 14:54,506
12/9/18 14:54,503
12/9/18 14:54,503
12/9/18 14:54,502
12/9/18 14:54,501
12/9/18 14:54,501
12/9/18 14:54,498
12/9/18 14:54,503
12/9/18 14:54,502
12/9/18 14:54,502
12/9/18 14:54,503
12/9/18 14:54,502
12/9/18 14:54,503
12/9/18 14:54,502
12/9/18 14:54,503
12/9/18 14:54,505
12/9/18 14:54,502
12/9/18 14:54,505
12/9/18 14:54,502
12/9/18 14:54,503
12/9/18 14:54,504
12/9/18 14:54,502
12/9/18 14:54,507
12/9/18 14:54,510
12/9/18 14:54,459
12/9/18 14:54,505
12/9/18 14:54,536
12/9/18 14:54,524
12/9/18 14:54,509
12/9/18 14:54,475
12/9/18 14:54,455
12/9/18 14:54,529
12/9/18 14:54,532
12/9/18 14:54,522
12/9/18 14:54,518
12/9/18 14:54,513
12/9/18 14:54,510
12/9/18 14:54,509
12/9/18 14:54,503
12/9/18 14:54,502
12/9/18 14:54,500
12/9/18 14:54,498
12/9/18 14:54,500
12/9/18 14:54,498
12/9/18 14:54,498
12/9/18 14:54,499
12/9/18 14:54,499
12/9/18 14:54,501
12/9/18 14:54,498
12/9/18 14:54,501
12/9/18 14:54,502
12/9/18 14:54,499
12/9/18 14:54,502
12/9/18 14:54,498
12/9/18 14:54,504
12/9/18 14:54,503
12/9/18 14:54,502
12/9/18 14:54,505
12/9/18 14:54,503
12/9/18 14:54,505
12/9/18 14:54,506
12/9/18 14:54,505
12/9/18 14:54,507
12/9/18 14:54,505
12/9/18 14:54,508
12/9/18 14:54,505
12/9/18 14:54,505
12/9/18 14:54,507
12/9/18 14:54,505
12/9/18 14:54,508
12/9/18 14:54,504
12/9/18 14:54,505
12/9/18 14:54,507
12/9/18 14:54,503
12/9/18 14:54,505
12/9/18 14:54,505
12/9/18 14:54,503
12/9/18 14:54,506
12/9/18 14:54,503
12/9/18 14:54,506
12/9/18 14:54,502
12/9/18 14:54,504
12/9/18 14:54,504
12/9/18 14:54,501
12/9/18 14:54,507
12/9/18 14:54,502
12/9/18 14:54,501
12/9/18 14:54,504
12/9/18 14:54,501
12/9/18 14:54,505
12/9/18 14:54,503
12/9/18 14:54,503
12/9/18 14:54,504
12/9/18 14:54,501
12/9/18 14:54,505
12/9/18 14:54,503
12/9/18 14:54,503
12/9/18 14:54,506
12/9/18 14:54,501
12/9/18 14:54,504
12/9/18 14:54,503
12/9/18 14:54,482
12/9/18 14:54,445
12/9/18 14:54,514
12/9/18 14:54,528
12/9/18 14:54,523
12/9/18 14:54,519
12/9/18 14:54,513
12/9/18 14:54,508
12/9/18 14:54,509
12/9/18 14:54,505
12/9/18 14:54,503
12/9/18 14:54,503
12/9/18 14:54,499
12/9/18 15:03,502
12/9/18 15:03,505
12/9/18 15:03,499
12/9/18 15:03,508
12/9/18 15:03,500
12/9/18 15:03,505
12/9/18 15:03,505
12/9/18 15:03,501
12/9/18 15:03,508
12/9/18 15:03,500
12/9/18 15:03,505
12/9/18 15:03,506
12/9/18 15:03,501
12/9/18 15:03,508
12/9/18 15:03,500
12/9/18 15:03,504
12/9/18 15:03,505
12/9/18 15:03,500
12/9/18 15:03,506
12/9/18 15:03,498
12/9/18 15:03,504
12/9/18 15:03,504
12/9/18 15:03,501
12/9/18 15:03,505
12/9/18 15:03,499
12/9/18 15:03,508
12/9/18 15:03,505
12/9/18 15:03,501
12/9/18 15:03,506
12/9/18 15:03,500
12/9/18 15:03,507
12/9/18 15:03,502
12/9/18 15:03,501
12/9/18 15:03,506
12/9/18 15:03,500
12/9/18 15:03,507
12/9/18 15:03,503
12/9/18 15:03,496
12/9/18 15:03,488
12/9/18 15:03,472
12/9/18 15:03,524
12/9/18 15:03,523
12/9/18 15:03,517
12/9/18 15:03,520
12/9/18 15:03,509
12/9/18 15:03,515
12/9/18 15:03,508
12/9/18 15:03,504
12/9/18 15:03,506
12/9/18 15:03,500
12/9/18 15:03,505
12/9/18 15:03,500
12/9/18 15:03,501
12/9/18 15:03,505
12/9/18 15:03,497
12/9/18 15:03,505
12/9/18 15:03,500
12/9/18 15:03,499
12/9/18 15:03,504
12/9/18 15:03,499
12/9/18 15:03,505
12/9/18 15:03,500
12/9/18 15:03,501
12/9/18 15:03,506
12/9/18 15:03,499
12/9/18 15:03,505
12/9/18 15:03,501
12/9/18 15:03,503
12/9/18 15:03,506
12/9/18 15:03,498
12/9/18 15:03,507
12/9/18 15:03,502
12/9/18 15:03,506
12/9/18 15:03,506
12/9/18 15:03,499
12/9/18 15:03,507
12/9/18 15:03,500
12/9/18 15:03,503
12/9/18 15:03,506
12/9/18 15:03,501
12/9/18 15:03,509
12/9/18 15:03,516
12/9/18 15:03,459
12/9/18 15:03,491
12/9/18 15:03,533
12/9/18 15:03,532
12/9/18 15:03,506
12/9/18 15:03,508
12/9/18 15:03,505
12/9/18 15:03,500
12/9/18 15:03,509
12/9/18 15:03,500
12/9/18 15:03,504
12/9/18 15:03,509
12/9/18 15:03,506
12/9/18 15:03,509
12/9/18 15:03,498
12/9/18 15:03,501
12/9/18 15:03,452
12/9/18 15:03,483
12/9/18 15:03,507
12/9/18 15:03,519
12/9/18 15:03,519
12/9/18 15:03,453
12/9/18 15:03,518
12/9/18 15:03,531
12/9/18 15:03,518
12/9/18 15:03,518
12/9/18 15:03,511
12/9/18 15:03,502
12/9/18 15:03,508
12/9/18 15:03,498
12/9/18 15:03,502
12/9/18 15:03,500
12/9/18 15:03,497
12/9/18 15:03,504
12/9/18 15:03,496
12/9/18 15:03,503
12/9/18 15:03,499
12/9/18 15:03,500
12/9/18 15:03,506
12/9/18 15:03,500
12/9/18 15:03,507
12/9/18 15:03,504
12/9/18 15:03,502
12/9/18 15:03,507
12/9/18 15:03,500
12/9/18 15:03,506
12/9/18 15:03,504
12/9/18 15:03,502
12/9/18 15:03,508
12/9/18 15:03,501
12/9/18 15:03,509
12/9/18 15:03,503
12/9/18 15:03,502
12/9/18 15:03,508
12/9/18 15:03,500
12/9/18 15:03,506
12/9/18 15:03,502
12/9/18 15:03,503
12/9/18 15:03,506
12/9/18 15:03,500
12/9/18 15:03,506
12/9/18 15:03,502
12/9/18 15:03,495
12/9/18 15:03,501
12/9/18 15:03,507
12/9/18 15:03,483
12/9/18 15:03,491
12/9/18 15:03,524
12/9/18 15:03,525
12/9/18 15:03,515
12/9/18 15:03,515
12/9/18 15:03,509
12/9/18 15:03,508
12/9/18 15:03,510
12/9/18 15:03,501
12/9/18 15:03,507
12/9/18 15:03,502
12/9/18 15:03,502
12/9/18 15:03,506
12/9/18 15:03,498
12/9/18 15:03,506
12/9/18 15:03,498
12/9/18 15:03,501
12/9/18 15:03,503
12/9/18 15:03,498
12/9/18 15:03,504
12/9/18 15:03,499
12/9/18 15:03,502
12/9/18 15:03,506
12/9/18 15:03,498
12/9/18 15:03,506
12/9/18 15:03,499
12/9/18 15:03,503
12/9/18 15:03,505
12/9/18 15:03,500
12/9/18 15:03,506
12/9/18 15:03,501
12/9/18 15:03,505
12/9/18 15:03,505
12/9/18 15:03,500
12/9/18 15:03,508
12/9/18 15:03,500
12/9/18 15:03,504
12/9/18 15:03,505
12/9/18 15:03,499
12/9/18 15:03,506
12/9/18 15:03,498
12/9/18 15:03,505
12/9/18 15:03,503
12/9/18 15:03,498
12/9/18 15:03,507
12/9/18 15:03,501
12/9/18 15:03,504
12/9/18 15:03,504
12/9/18 15:03,501
12/9/18 15:03,510
12/9/18 15:03,501
12/9/18 15:03,506
12/9/18 15:03,504
12/9/18 15:03,500
12/9/18 15:03,508
12/9/18 15:03,500
12/9/18 15:03,510
12/9/18 15:03,492
12/9/18 15:03,457
12/9/18 15:03,514
12/9/18 15:03,539
12/9/18 15:03,532
12/9/18 15:03,510
12/9/18 15:03,505
12/9/18 15:03,507
12/9/18 15:03,441
12/9/18 15:03,502
12/9/18 15:03,524
12/9/18 15:03,517
12/9/18 15:03,519
12/9/18 15:03,506
12/9/18 15:03,508
12/9/18 15:03,504
12/9/18 15:03,501
12/9/18 15:03,505
12/9/18 15:03,497
12/9/18 15:03,504
12/9/18 15:03,500
12/9/18 15:03,498
12/9/18 15:03,503
12/9/18 15:03,496
12/9/18 15:03,504
12/9/18 15:03,500
12/9/18 15:03,499
12/9/18 15:03,504
12/9/18 15:03,497
12/9/18 15:03,504
12/9/18 15:03,501
12/9/18 15:03,500
12/9/18 15:03,506
12/9/18 15:03,479
12/9/18 15:03,513
12/9/18 15:03,511
12/9/18 15:03,454
12/9/18 15:03,513
12/9/18 15:03,521
12/9/18 15:03,526
12/9/18 15:03,516
12/9/18 15:03,514
12/9/18 15:03,514
12/9/18 15:03,505
12/9/18 15:03,512
12/9/18 15:03,505
12/9/18 15:03,506
12/9/18 15:03,504
12/9/18 15:03,498
12/9/18 15:03,504
12/9/18 15:03,500
12/9/18 15:03,502
12/9/18 15:03,507
12/9/18 15:03,500
12/9/18 15:03,506
12/9/18 15:03,502
12/9/18 15:03,504
12/9/18 15:03,506
12/9/18 15:03,499
12/9/18 15:03,508
12/9/18 15:03,502
12/9/18 15:03,504
12/9/18 15:03,505
12/9/18 15:03,500
12/9/18 15:03,506
12/9/18 15:03,499
12/9/18 15:03,503
12/9/18 15:03,506
12/9/18 15:03,499
12/9/18 15:03,508
12/9/18 15:03,499
12/9/18 15:03,504
12/9/18 15:03,505
12/9/18 15:03,501
12/9/18 15:03,507
12/9/18 15:03,501
12/9/18 15:03,505
12/9/18 15:03,505
12/9/18 15:03,501
12/9/18 15:03,508
12/9/18 15:03,500
12/9/18 15:03,505
12/9/18 15:03,504
12/9/18 15:03,500
12/9/18 15:03,508
12/9/18 15:03,500
12/9/18 15:03,505
12/9/18 15:03,505
12/9/18 15:03,499
12/9/18 15:03,507
12/9/18 15:03,500
12/9/18 15:03,504
12/9/18 15:03,504
12/9/18 15:03,499
12/9/18 15:03,507
12/9/18 15:03,498
12/9/18 15:03,504
12/9/18 15:03,504
12/9/18 15:03,500
12/9/18 15:03,506
12/9/18 15:03,498
12/9/18 15:03,504
12/9/18 15:03,484
12/9/18 15:03,510
12/9/18 15:03,518
12/9/18 15:03,504
12/9/18 15:03,508
12/9/18 15:03,507
12/9/18 15:03,489
12/9/18 15:03,468
12/9/18 15:03,511
12/9/18 15:03,522
12/9/18 15:03,518
12/9/18 15:03,514
12/9/18 15:03,515
12/9/18 15:03,516
12/9/18 15:03,464
12/9/18 15:03,493
12/9/18 15:03,537
12/9/18 15:03,529
12/9/18 15:03,506
12/9/18 15:03,511
12/9/18 15:03,507
12/9/18 15:03,500
12/9/18 15:03,500
12/9/18 15:03,487
12/9/18 15:03,506
12/9/18 15:03,492
12/9/18 15:03,499
12/9/18 15:03,508
12/9/18 15:03,500
12/9/18 15:03,507
12/9/18 15:03,502
12/9/18 15:03,500
12/9/18 15:03,499
12/9/18 15:03,492
12/9/18 15:03,500
12/9/18 15:03,495
12/9/18 15:03,498
12/9/18 15:03,503
12/9/18 15:03,496
12/9/18 15:03,504
12/9/18 15:03,499
12/9/18 15:03,501
12/9/18 15:03,508
12/9/18 15:03,500
12/9/18 15:03,507
12/9/18 15:03,503
12/9/18 15:03,503
12/9/18 15:03,507
12/9/18 15:03,502
12/9/18 15:03,509
12/9/18 15:03,504
12/9/18 15:03,506
12/9/18 15:03,509
12/9/18 15:03,503
12/9/18 15:03,510
12/9/18 15:03,503
12/9/18 15:03,505
12/9/18 15:03,507
12/9/18 15:03,501
12/9/18 15:03,507
12/9/18 15:03,505
12/9/18 15:03,503
12/9/18 15:03,507
12/9/18 15:03,501
12/9/18 15:03,510
12/9/18 15:03,502
12/9/18 15:03,504
12/9/18 15:03,506
12/9/18 15:03,500
12/9/18 15:03,508
12/9/18 15:03,502
12/9/18 15:03,505
12/9/18 15:03,503
12/9/18 15:03,479
12/9/18 15:03,512
12/9/18 15:03,456
12/9/18 15:03,504
12/9/18 15:03,524
12/9/18 15:03,517
12/9/18 15:03,521
12/9/18 15:03,509
12/9/18 15:03,510
12/9/18 15:03,509
12/9/18 15:03,501
12/9/18 15:03,507
12/9/18 15:03,500
12/9/18 15:03,502
12/9/18 15:03,505
12/9/18 15:03,500
12/9/18 15:03,505
12/9/18 15:03,498
12/9/18 15:03,503
12/9/18 15:03,502
12/9/18 15:03,499
12/9/18 15:03,505
12/9/18 15:03,498
12/9/18 15:03,504
12/9/18 15:03,502
12/9/18 15:03,499
12/9/18 15:03,507
12/9/18 15:03,499
12/9/18 15:03,505
12/9/18 15:03,503
12/9/18 15:03,499
12/9/18 15:03,506
12/9/18 15:03,498
12/9/18 15:03,505
12/9/18 15:03,503
12/9/18 15:03,500
12/9/18 15:03,508
12/9/18 15:03,498
12/9/18 15:03,507
12/9/18 15:03,504
12/9/18 15:03,502
12/9/18 15:03,507
12/9/18 15:03,499
12/9/18 15:03,506
12/9/18 15:03,502
12/9/18 15:03,501
12/9/18 15:03,508
12/9/18 15:03,499
12/9/18 15:03,507
12/9/18 15:03,504
12/9/18 15:03,503
12/9/18 15:03,507
12/9/18 15:03,501
12/9/18 15:03,506
12/9/18 15:03,499
12/9/18 15:03,446
12/9/18 15:03,500
12/9/18 15:03,507
12/9/18 15:03,544
12/9/18 15:03,483
12/9/18 15:03,490
12/9/18 15:03,545
12/9/18 15:03,536
12/9/18 15:03,522
12/9/18 15:03,507
12/9/18 15:03,501
12/9/18 15:03,505
12/9/18 15:03,499
12/9/18 15:03,505
12/9/18 15:03,500
12/9/18 15:03,502
12/9/18 15:03,505
12/9/18 15:03,497
12/9/18 15:03,505
12/9/18 15:03,497
12/9/18 15:03,499
12/9/18 15:03,500
12/9/18 15:03,494
12/9/18 15:03,502
12/9/18 15:03,496
12/9/18 15:03,499
12/9/18 15:03,502
12/9/18 15:03,496
12/9/18 15:03,503
12/9/18 15:03,499
12/9/18 15:03,500
12/9/18 15:03,504
12/9/18 15:03,498
12/9/18 15:03,505
12/9/18 15:03,500
12/9/18 15:03,504
12/9/18 15:03,507
12/9/18 15:03,500
12/9/18 15:03,506
12/9/18 15:03,502
12/9/18 15:03,506
12/9/18 15:03,508
12/9/18 15:03,501
12/9/18 15:03,504
12/9/18 15:03,456
12/9/18 15:03,516
12/9/18 15:03,524
12/9/18 15:03,516
12/9/18 15:03,520
12/9/18 15:03,511
12/9/18 15:03,510
12/9/18 15:03,509
12/9/18 15:03,504
12/9/18 15:03,510
12/9/18 15:03,501
12/9/18 15:03,507
12/9/18 15:03,506
12/9/18 15:03,498
12/9/18 15:03,508
12/9/18 15:03,499
12/9/18 15:03,504
12/9/18 15:03,505
12/9/18 15:03,499
12/9/18 15:03,507
12/9/18 15:03,498
12/9/18 15:03,504
12/9/18 15:03,477
12/9/18 15:03,505
12/9/18 15:03,517
12/9/18 15:03,505
12/9/18 15:03,509
12/9/18 15:03,506
12/9/18 15:03,499
12/9/18 15:03,507
12/9/18 15:03,497
12/9/18 15:03,504
12/9/18 15:03,504
12/9/18 15:03,500
12/9/18 15:03,507
12/9/18 15:03,499
12/9/18 15:03,506
12/9/18 15:03,501
12/9/18 15:03,500
12/9/18 15:03,505
12/9/18 15:03,497
12/9/18 15:03,504
12/9/18 15:03,502
12/9/18 15:03,500
12/9/18 15:03,508
12/9/18 15:03,499
12/9/18 15:03,507
12/9/18 15:03,502
12/9/18 15:03,502
12/9/18 15:03,508
12/9/18 15:03,499
12/9/18 15:03,507
12/9/18 15:03,504
12/9/18 15:03,502
12/9/18 15:03,502
12/9/18 15:03,451
12/9/18 15:03,514
12/9/18 15:03,517
12/9/18 15:03,516
12/9/18 15:03,519
12/9/18 15:03,506
12/9/18 15:03,511
12/9/18 15:03,505
12/9/18 15:03,503
12/9/18 15:03,508
12/9/18 15:03,501
12/9/18 15:03,508
12/9/18 15:03,504
12/9/18 15:03,503
12/9/18 15:03,506
12/9/18 15:03,498
12/9/18 15:03,505
12/9/18 15:03,500
12/9/18 15:03,500
12/9/18 15:03,505
12/9/18 15:03,499
12/9/18 15:03,506
12/9/18 15:03,499
12/9/18 15:03,502
12/9/18 15:03,505
12/9/18 15:03,499
12/9/18 15:03,481
12/9/18 15:03,465
12/9/18 15:03,470
12/9/18 15:03,508
12/9/18 15:03,551
12/9/18 15:03,546
12/9/18 15:03,521
12/9/18 15:03,511
12/9/18 15:03,511
12/9/18 15:03,499
12/9/18 15:03,507
12/9/18 15:03,499
12/9/18 15:03,501
12/9/18 15:03,504
12/9/18 15:03,499
12/9/18 15:03,505
12/9/18 15:03,495
12/9/18 15:03,499
12/9/18 15:03,501
12/9/18 15:03,495
12/9/18 15:03,503
12/9/18 15:03,496
12/9/18 15:03,503
12/9/18 15:03,501
12/9/18 15:03,497
12/9/18 15:03,504
12/9/18 15:03,499
12/9/18 15:03,501
12/9/18 15:03,503
12/9/18 15:03,498
12/9/18 15:03,507
12/9/18 15:03,498
12/9/18 15:03,504
12/9/18 15:03,504
12/9/18 15:03,500
12/9/18 15:03,505
12/9/18 15:03,501
12/9/18 15:03,506
12/9/18 15:03,505
12/9/18 15:03,503
12/9/18 15:12,504
12/9/18 15:12,505
12/9/18 15:12,504
12/9/18 15:12,506
12/9/18 15:12,478
12/9/18 15:12,497
12/9/18 15:12,479
12/9/18 15:12,524
12/9/18 15:12,528
12/9/18 15:12,522
12/9/18 15:12,517
12/9/18 15:12,514
12/9/18 15:12,508
12/9/18 15:12,509
12/9/18 15:12,507
12/9/18 15:12,505
12/9/18 15:12,506
12/9/18 15:12,503
12/9/18 15:12,504
12/9/18 15:12,504
12/9/18 15:12,503
12/9/18 15:12,503
12/9/18 15:12,500
12/9/18 15:12,503
12/9/18 15:12,500
12/9/18 15:12,502
12/9/18 15:12,502
12/9/18 15:12,502
12/9/18 15:12,504
12/9/18 15:12,498
12/9/18 15:12,503
12/9/18 15:12,503
12/9/18 15:12,502
12/9/18 15:12,504
12/9/18 15:12,502
12/9/18 15:12,503
12/9/18 15:12,505
12/9/18 15:12,503
12/9/18 15:12,504
12/9/18 15:12,449
12/9/18 15:12,506
12/9/18 15:12,514
12/9/18 15:12,515
12/9/18 15:12,528
12/9/18 15:12,518
12/9/18 15:12,513
12/9/18 15:12,509
12/9/18 15:12,505
12/9/18 15:12,505
12/9/18 15:12,501
12/9/18 15:12,502
12/9/18 15:12,501
12/9/18 15:12,499
12/9/18 15:12,504
12/9/18 15:12,500
12/9/18 15:12,504
12/9/18 15:12,502
12/9/18 15:12,502
12/9/18 15:12,503
12/9/18 15:12,502
12/9/18 15:12,503
12/9/18 15:12,504
12/9/18 15:12,503
12/9/18 15:12,505
12/9/18 15:12,502
12/9/18 15:12,504
12/9/18 15:12,504
12/9/18 15:12,502
12/9/18 15:12,504
12/9/18 15:12,501
12/9/18 15:12,504
12/9/18 15:12,503
12/9/18 15:12,486
12/9/18 15:12,470
12/9/18 15:12,501
12/9/18 15:12,532
12/9/18 15:12,526
12/9/18 15:12,517
12/9/18 15:12,516
12/9/18 15:12,507
12/9/18 15:12,508
12/9/18 15:12,504
12/9/18 15:12,505
12/9/18 15:12,504
12/9/18 15:12,501
12/9/18 15:12,504
12/9/18 15:12,501
12/9/18 15:12,501
12/9/18 15:12,502
12/9/18 15:12,501
12/9/18 15:12,506
12/9/18 15:12,502
12/9/18 15:12,461
12/9/18 15:12,511
12/9/18 15:12,536
12/9/18 15:12,519
12/9/18 15:12,508
12/9/18 15:12,501
12/9/18 15:12,504
12/9/18 15:12,503
12/9/18 15:12,501
12/9/18 15:12,504
12/9/18 15:12,505
12/9/18 15:12,508
12/9/18 15:12,503
12/9/18 15:12,502
12/9/18 15:12,498
12/9/18 15:12,497
12/9/18 15:12,500
12/9/18 15:12,498
12/9/18 15:12,501
12/9/18 15:12,499
12/9/18 15:12,500
12/9/18 15:12,503
12/9/18 15:12,500
12/9/18 15:12,503
12/9/18 15:12,501
12/9/18 15:12,503
12/9/18 15:12,503
12/9/18 15:12,501
12/9/18 15:12,505
12/9/18 15:12,503
12/9/18 15:12,503
12/9/18 15:12,504
12/9/18 15:12,503
12/9/18 15:12,506
12/9/18 15:12,503
12/9/18 15:12,504
12/9/18 15:12,505
12/9/18 15:12,503
12/9/18 15:12,506
12/9/18 15:12,503
12/9/18 15:12,506
12/9/18 15:12,507
12/9/18 15:12,504
12/9/18 15:12,506
12/9/18 15:12,505
12/9/18 15:12,506
12/9/18 15:12,506
12/9/18 15:12,504
12/9/18 15:12,507
12/9/18 15:12,504
12/9/18 15:12,504
12/9/18 15:12,507
12/9/18 15:12,505
12/9/18 15:12,504
12/9/18 15:12,479
12/9/18 15:12,509
12/9/18 15:12,516
12/9/18 15:12,510
12/9/18 15:12,508
12/9/18 15:12,505
12/9/18 15:12,505
12/9/18 15:12,505
12/9/18 15:12,504
12/9/18 15:12,503
12/9/18 15:12,501
12/9/18 15:12,504
12/9/18 15:12,503
12/9/18 15:12,500
12/9/18 15:12,504
12/9/18 15:12,501
12/9/18 15:12,504
12/9/18 15:12,501
12/9/18 15:12,501
12/9/18 15:12,504
12/9/18 15:12,501
12/9/18 15:12,503
12/9/18 15:12,504
12/9/18 15:12,502
12/9/18 15:12,503
12/9/18 15:12,500
12/9/18 15:12,504
12/9/18 15:12,504
12/9/18 15:12,501
12/9/18 15:12,504
12/9/18 15:12,501
12/9/18 15:12,504
12/9/18 15:12,503
12/9/18 15:12,503
12/9/18 15:12,505
12/9/18 15:12,502
12/9/18 15:12,506
12/9/18 15:12,503
12/9/18 15:12,505
12/9/18 15:12,506
12/9/18 15:12,501
12/9/18 15:12,504
12/9/18 15:12,502
12/9/18 15:12,502
12/9/18 15:12,505
12/9/18 15:12,504
12/9/18 15:12,505
12/9/18 15:12,503
12/9/18 15:12,505
12/9/18 15:12,502
12/9/18 15:12,502
12/9/18 15:12,505
12/9/18 15:12,503
12/9/18 15:12,504
12/9/18 15:12,505
12/9/18 15:12,502
12/9/18 15:12,504
12/9/18 15:12,503
12/9/18 15:12,502
12/9/18 15:12,505
12/9/18 15:12,502
12/9/18 15:12,505
12/9/18 15:12,500
12/9/18 15:12,428
12/9/18 15:12,494
12/9/18 15:12,525
12/9/18 15:12,528
12/9/18 15:12,522
12/9/18 15:12,518
12/9/18 15:12,515
12/9/18 15:12,509
12/9/18 15:12,509
12/9/18 15:12,504
12/9/18 15:12,505
12/9/18 15:12,503
12/9/18 15:12,510
12/9/18 15:12,473
12/9/18 15:12,468
12/9/18 15:12,533
12/9/18 15:12,533
12/9/18 15:12,509
12/9/18 15:12,505
12/9/18 15:12,503
12/9/18 15:12,506
12/9/18 15:12,502
12/9/18 15:12,490
12/9/18 15:12,503
12/9/18 15:12,507
12/9/18 15:12,505
12/9/18 15:12,503
12/9/18 15:12,500
12/9/18 15:12,500
12/9/18 15:12,499
12/9/18 15:12,501
12/9/18 15:12,501
12/9/18 15:12,498
12/9/18 15:12,502
12/9/18 15:12,498
12/9/18 15:12,501
12/9/18 15:12,500
12/9/18 15:12,501
12/9/18 15:12,504
12/9/18 15:12,500
12/9/18 15:12,501
12/9/18 15:12,503
12/9/18 15:12,500
12/9/18 15:12,504
12/9/18 15:12,502
12/9/18 15:12,503
12/9/18 15:12,502
12/9/18 15:12,503
12/9/18 15:12,503
12/9/18 15:12,505
12/9/18 15:12,507
12/9/18 15:12,505
12/9/18 15:12,504
12/9/18 15:12,507
12/9/18 15:12,504
12/9/18 15:12,508
12/9/18 15:12,507
12/9/18 15:12,505
12/9/18 15:12,506
12/9/18 15:12,503
12/9/18 15:12,496
12/9/18 15:12,457
12/9/18 15:12,514
12/9/18 15:12,523
12/9/18 15:12,492
12/9/18 15:12,524
12/9/18 15:12,520
12/9/18 15:12,516
12/9/18 15:12,513
12/9/18 15:12,505
12/9/18 15:12,506
12/9/18 15:12,503
12/9/18 15:12,502
12/9/18 15:12,503
12/9/18 15:12,500
12/9/18 15:12,502
12/9/18 15:12,499
12/9/18 15:12,501
12/9/18 15:12,503
12/9/18 15:12,499
12/9/18 15:12,501
12/9/18 15:12,501
12/9/18 15:12,502
12/9/18 15:12,502
12/9/18 15:12,501
12/9/18 15:12,506
12/9/18 15:12,503
12/9/18 15:12,505
12/9/18 15:12,505
12/9/18 15:12,503
12/9/18 15:12,505
12/9/18 15:12,505
12/9/18 15:12,503
12/9/18 15:12,506
12/9/18 15:12,503
12/9/18 15:12,507
12/9/18 15:12,502
12/9/18 15:12,505
12/9/18 15:12,505
12/9/18 15:12,502
12/9/18 15:12,505
12/9/18 15:12,504
12/9/18 15:12,505
12/9/18 15:12,505
12/9/18 15:12,502
12/9/18 15:12,506
12/9/18 15:12,503
12/9/18 15:12,502
12/9/18 15:12,504
12/9/18 15:12,503
12/9/18 15:12,503
12/9/18 15:12,473
12/9/18 15:12,484
12/9/18 15:12,518
12/9/18 15:12,520
12/9/18 15:12,518
12/9/18 15:12,513
12/9/18 15:12,511
12/9/18 15:12,484
12/9/18 15:12,507
12/9/18 15:12,516
12/9/18 15:12,509
12/9/18 15:12,508
12/9/18 15:12,503
12/9/18 15:12,503
12/9/18 15:12,507
12/9/18 15:12,501
12/9/18 15:12,502
12/9/18 15:12,503
12/9/18 15:12,501
12/9/18 15:12,502
12/9/18 15:12,499
12/9/18 15:12,503
12/9/18 15:12,503
12/9/18 15:12,502
12/9/18 15:12,514
12/9/18 15:12,459
12/9/18 15:12,498
12/9/18 15:12,537
12/9/18 15:12,526
12/9/18 15:12,509
12/9/18 15:12,505
12/9/18 15:12,502
12/9/18 15:12,500
12/9/18 15:12,502
12/9/18 15:12,508
12/9/18 15:12,505
12/9/18 15:12,507
12/9/18 15:12,504
12/9/18 15:12,503
12/9/18 15:12,499
12/9/18 15:12,495
12/9/18 15:12,499
12/9/18 15:12,496
12/9/18 15:12,499
12/9/18 15:12,499
12/9/18 15:12,500
12/9/18 15:12,500
12/9/18 15:12,501
12/9/18 15:12,501
12/9/18 15:12,503
12/9/18 15:12,499
12/9/18 15:12,505
12/9/18 15:12,502
12/9/18 15:12,503
12/9/18 15:12,506
12/9/18 15:12,501
12/9/18 15:12,505
12/9/18 15:12,504
12/9/18 15:12,504
12/9/18 15:12,506
12/9/18 15:12,503
12/9/18 15:12,506
12/9/18 15:12,504
12/9/18 15:12,504
12/9/18 15:12,505
12/9/18 15:12,505
12/9/18 15:12,506
12/9/18 15:12,504
12/9/18 15:12,502
12/9/18 15:12,489
12/9/18 15:12,513
12/9/18 15:12,515
12/9/18 15:12,453
12/9/18 15:12,505
12/9/18 15:12,522
12/9/18 15:12,519
12/9/18 15:12,519
12/9/18 15:12,513
12/9/18 15:12,511
12/9/18 15:12,508
12/9/18 15:12,504
12/9/18 15:12,503
12/9/18 15:12,503
12/9/18 15:12,503
12/9/18 15:12,502
12/9/18 15:12,502
12/9/18 15:12,502
12/9/18 15:12,500
12/9/18 15:12,501
12/9/18 15:12,502
12/9/18 15:12,501
12/9/18 15:12,504
12/9/18 15:12,499
12/9/18 15:12,503
12/9/18 15:12,503
12/9/18 15:12,502
12/9/18 15:12,505
12/9/18 15:12,502
12/9/18 15:12,504
12/9/18 15:12,504
12/9/18 15:12,503
12/9/18 15:12,505
12/9/18 15:12,501
12/9/18 15:12,499
12/9/18 15:12,447
12/9/18 15:12,502
12/9/18 15:12,533
12/9/18 15:12,522
12/9/18 15:12,519
12/9/18 15:12,512
12/9/18 15:12,509
12/9/18 15:12,509
12/9/18 15:12,504
12/9/18 15:12,504
12/9/18 15:12,505
12/9/18 15:12,502
12/9/18 15:12,503
12/9/18 15:12,500
12/9/18 15:12,503
12/9/18 15:12,501
12/9/18 15:12,501
12/9/18 15:12,501
12/9/18 15:12,502
12/9/18 15:12,505
12/9/18 15:12,501
12/9/18 15:12,500
12/9/18 15:12,502
12/9/18 15:12,499
12/9/18 15:12,505
12/9/18 15:12,503
12/9/18 15:12,500
12/9/18 15:12,503
12/9/18 15:12,500
12/9/18 15:12,503
12/9/18 15:12,502
12/9/18 15:12,502
12/9/18 15:12,503
12/9/18 15:12,504
12/9/18 15:12,504
12/9/18 15:12,505
12/9/18 15:12,504
12/9/18 15:12,504
12/9/18 15:12,502
12/9/18 15:12,506
12/9/18 15:12,504
12/9/18 15:12,504
12/9/18 15:12,507
12/9/18 15:12,502
12/9/18 15:12,505
12/9/18 15:12,505
12/9/18 15:12,514
12/9/18 15:12,461
12/9/18 15:12,498
12/9/18 15:12,538
12/9/18 15:12,505
12/9/18 15:12,476
12/9/18 15:12,523
12/9/18 15:12,522
12/9/18 15:12,515
12/9/18 15:12,514
12/9/18 15:12,506
12/9/18 15:12,507
12/9/18 15:12,505
12/9/18 15:12,508
12/9/18 15:12,504
12/9/18 15:12,501
12/9/18 15:12,500
12/9/18 15:12,499
12/9/18 15:12,503
12/9/18 15:12,500
12/9/18 15:12,476
12/9/18 15:12,507
12/9/18 15:12,510
12/9/18 15:12,507
12/9/18 15:12,503
12/9/18 15:12,503
12/9/18 15:12,503
12/9/18 15:12,500
12/9/18 15:12,504
12/9/18 15:12,501
12/9/18 15:12,502
12/9/18 15:12,501
12/9/18 15:12,500
12/9/18 15:12,506
12/9/18 15:12,502
12/9/18 15:12,503
12/9/18 15:12,505
12/9/18 15:12,504
12/9/18 15:12,507
12/9/18 15:12,504
12/9/18 15:12,507
12/9/18 15:12,506
12/9/18 15:12,506
12/9/18 15:12,508
12/9/18 15:12,505
12/9/18 15:12,507
12/9/18 15:12,507
12/9/18 15:12,503
12/9/18 15:12,506
12/9/18 15:12,505
12/9/18 15:12,506
12/9/18 15:12,505
12/9/18 15:12,504
12/9/18 15:12,506
12/9/18 15:12,503
12/9/18 15:12,505
12/9/18 15:12,504
12/9/18 15:12,502
12/9/18 15:12,503
12/9/18 15:12,502
12/9/18 15:12,505
12/9/18 15:12,503
12/9/18 15:12,501
12/9/18 15:12,505
12/9/18 15:12,502
12/9/18 15:12,501
12/9/18 15:12,501
12/9/18 15:12,501
12/9/18 15:12,505
12/9/18 15:12,500
12/9/18 15:12,502
12/9/18 15:12,501
12/9/18 15:12,501
12/9/18 15:12,504
12/9/18 15:12,501
12/9/18 15:12,506
12/9/18 15:12,502
12/9/18 15:12,504
12/9/18 15:12,504
12/9/18 15:12,503
12/9/18 15:12,505
12/9/18 15:12,503
12/9/18 15:12,502
12/9/18 15:12,503
12/9/18 15:12,501
12/9/18 15:12,503
12/9/18 15:12,503
12/9/18 15:12,503
12/9/18 15:12,504
12/9/18 15:12,502
12/9/18 15:12,504
12/9/18 15:12,503
12/9/18 15:12,503
12/9/18 15:12,506
12/9/18 15:12,502
12/9/18 15:12,506
12/9/18 15:12,501
12/9/18 15:12,503
12/9/18 15:12,504
12/9/18 15:12,505
12/9/18 15:12,504
12/9/18 15:12,502
12/9/18 15:12,502
12/9/18 15:12,504
12/9/18 15:12,459
12/9/18 15:12,491
12/9/18 15:12,520
12/9/18 15:12,521
12/9/18 15:12,520
12/9/18 15:12,490
12/9/18 15:12,517
12/9/18 15:12,520
12/9/18 15:12,515
12/9/18 15:12,509
12/9/18 15:12,505
12/9/18 15:12,506
12/9/18 15:12,501
12/9/18 15:12,502
12/9/18 15:12,502
12/9/18 15:12,499
12/9/18 15:12,503
12/9/18 15:12,502
12/9/18 15:12,512
12/9/18 15:12,464
12/9/18 15:12,470
12/9/18 15:12,531
12/9/18 15:12,529
12/9/18 15:12,516
12/9/18 15:12,503
12/9/18 15:12,504
12/9/18 15:21,539
12/9/18 15:21,536
12/9/18 15:21,521
12/9/18 15:21,510
12/9/18 15:21,511
12/9/18 15:21,503
12/9/18 15:21,500
12/9/18 15:21,503
12/9/18 15:21,501
12/9/18 15:21,505
12/9/18 15:21,503
12/9/18 15:21,498
12/9/18 15:21,484
12/9/18 15:21,464
12/9/18 15:21,524
12/9/18 15:21,524
12/9/18 15:21,519
12/9/18 15:21,515
12/9/18 15:21,509
12/9/18 15:21,508
12/9/18 15:21,503
12/9/18 15:21,502
12/9/18 15:21,502
12/9/18 15:21,500
12/9/18 15:21,503
12/9/18 15:21,501
12/9/18 15:21,501
12/9/18 15:21,501
12/9/18 15:21,501
12/9/18 15:21,504
12/9/18 15:21,502
12/9/18 15:21,503
12/9/18 15:21,503
12/9/18 15:21,503
12/9/18 15:21,506
12/9/18 15:21,501
12/9/18 15:21,504
12/9/18 15:21,505
12/9/18 15:21,504
12/9/18 15:21,507
12/9/18 15:21,504
12/9/18 15:21,505
12/9/18 15:21,505
12/9/18 15:21,501
12/9/18 15:21,505
12/9/18 15:21,503
12/9/18 15:21,466
12/9/18 15:21,490
12/9/18 15:21,522
12/9/18 15:21,522
12/9/18 15:21,515
12/9/18 15:21,514
12/9/18 15:21,509
12/9/18 15:21,504
12/9/18 15:21,507
12/9/18 15:21,504
12/9/18 15:21,499
12/9/18 15:21,492
12/9/18 15:21,513
12/9/18 15:21,511
12/9/18 15:21,505
12/9/18 15:21,506
12/9/18 15:21,503
12/9/18 15:21,501
12/9/18 15:21,503
12/9/18 15:21,499
12/9/18 15:21,503
12/9/18 15:21,502
12/9/18 15:21,501
12/9/18 15:21,504
12/9/18 15:21,502
12/9/18 15:21,506
12/9/18 15:21,503
12/9/18 15:21,501
12/9/18 15:21,502
12/9/18 15:21,502
12/9/18 15:21,505
12/9/18 15:21,502
12/9/18 15:21,501
12/9/18 15:21,504
12/9/18 15:21,502
12/9/18 15:21,505
12/9/18 15:21,504
12/9/18 15:21,503
12/9/18 15:21,505
12/9/18 15:21,502
12/9/18 15:21,505
12/9/18 15:21,503
12/9/18 15:21,503
12/9/18 15:21,505
12/9/18 15:21,502
12/9/18 15:21,504
12/9/18 15:21,503
12/9/18 15:21,503
12/9/18 15:21,505
12/9/18 15:21,502
12/9/18 15:21,505
12/9/18 15:21,504
12/9/18 15:21,504
12/9/18 15:21,505
12/9/18 15:21,501
12/9/18 15:21,505
12/9/18 15:21,502
12/9/18 15:21,503
12/9/18 15:21,504
12/9/18 15:21,501
12/9/18 15:21,504
12/9/18 15:21,502
12/9/18 15:21,504
12/9/18 15:21,504
12/9/18 15:21,502
12/9/18 15:21,506
12/9/18 15:21,502
12/9/18 15:21,502
12/9/18 15:21,505
12/9/18 15:21,501
12/9/18 15:21,506
12/9/18 15:21,503
12/9/18 15:21,503
12/9/18 15:21,506
12/9/18 15:21,504
12/9/18 15:21,407
12/9/18 15:21,503
12/9/18 15:21,552
12/9/18 15:21,528
12/9/18 15:21,532
12/9/18 15:21,523
12/9/18 15:21,511
12/9/18 15:21,510
12/9/18 15:21,511
12/9/18 15:21,506
12/9/18 15:21,509
12/9/18 15:21,503
12/9/18 15:21,500
12/9/18 15:21,496
12/9/18 15:21,493
12/9/18 15:21,497
12/9/18 15:21,495
12/9/18 15:21,498
12/9/18 15:21,499
12/9/18 15:21,498
12/9/18 15:21,503
12/9/18 15:21,499
12/9/18 15:21,500
12/9/18 15:21,501
12/9/18 15:21,498
12/9/18 15:21,502
12/9/18 15:21,500
12/9/18 15:21,503
12/9/18 15:21,503
12/9/18 15:21,502
12/9/18 15:21,503
12/9/18 15:21,502
12/9/18 15:21,506
12/9/18 15:21,505
12/9/18 15:21,504
12/9/18 15:21,507
12/9/18 15:21,503
12/9/18 15:21,506
12/9/18 15:21,506
12/9/18 15:21,504
12/9/18 15:21,506
12/9/18 15:21,456
12/9/18 15:21,496
12/9/18 15:21,524
12/9/18 15:21,522
12/9/18 15:21,520
12/9/18 15:21,513
12/9/18 15:21,512
12/9/18 15:21,509
12/9/18 15:21,505
12/9/18 15:21,507
12/9/18 15:21,503
12/9/18 15:21,504
12/9/18 15:21,503
12/9/18 15:21,502
12/9/18 15:21,503
12/9/18 15:21,491
12/9/18 15:21,497
12/9/18 15:21,513
12/9/18 15:21,510
12/9/18 15:21,508
12/9/18 15:21,505
12/9/18 15:21,505
12/9/18 15:21,502
12/9/18 15:21,501
12/9/18 15:21,503
12/9/18 15:21,501
12/9/18 15:21,502
12/9/18 15:21,501
12/9/18 15:21,503
12/9/18 15:21,503
12/9/18 15:21,501
12/9/18 15:21,505
12/9/18 15:21,503
12/9/18 15:21,504
12/9/18 15:21,504
12/9/18 15:21,500
12/9/18 15:21,491
12/9/18 15:21,465
12/9/18 15:21,521
12/9/18 15:21,523
12/9/18 15:21,517
12/9/18 15:21,516
12/9/18 15:21,509
12/9/18 15:21,509
12/9/18 15:21,507
12/9/18 15:21,504
12/9/18 15:21,505
12/9/18 15:21,502
12/9/18 15:21,504
12/9/18 15:21,503
12/9/18 15:21,500
12/9/18 15:21,502
12/9/18 15:21,500
12/9/18 15:21,502
12/9/18 15:21,503
12/9/18 15:21,501
12/9/18 15:21,502
12/9/18 15:21,500
12/9/18 15:21,502
12/9/18 15:21,502
12/9/18 15:21,502
12/9/18 15:21,505
12/9/18 15:21,502
12/9/18 15:21,504
12/9/18 15:21,504
12/9/18 15:21,502
12/9/18 15:21,487
12/9/18 15:21,503
12/9/18 15:21,516
12/9/18 15:21,510
12/9/18 15:21,502
12/9/18 15:21,450
12/9/18 15:21,514
12/9/18 15:21,524
12/9/18 15:21,521
12/9/18 15:21,514
12/9/18 15:21,512
12/9/18 15:21,507
12/9/18 15:21,507
12/9/18 15:21,505
12/9/18 15:21,503
12/9/18 15:21,505
12/9/18 15:21,500
12/9/18 15:21,502
12/9/18 15:21,501
12/9/18 15:21,499
12/9/18 15:21,504
12/9/18 15:21,501
12/9/18 15:21,503
12/9/18 15:21,502
12/9/18 15:21,514
12/9/18 15:21,455
12/9/18 15:21,487
12/9/18 15:21,542
12/9/18 15:21,519
12/9/18 15:21,488
12/9/18 15:21,504
12/9/18 15:21,454
12/9/18 15:21,511
12/9/18 15:21,528
12/9/18 15:21,522
12/9/18 15:21,520
12/9/18 15:21,510
12/9/18 15:21,506
12/9/18 15:21,505
12/9/18 15:21,501
12/9/18 15:21,501
12/9/18 15:21,499
12/9/18 15:21,501
12/9/18 15:21,498
12/9/18 15:21,499
12/9/18 15:21,500
12/9/18 15:21,498
12/9/18 15:21,501
12/9/18 15:21,500
12/9/18 15:21,500
12/9/18 15:21,500
12/9/18 15:21,500
12/9/18 15:21,501
12/9/18 15:21,500
12/9/18 15:21,502
12/9/18 15:21,502
12/9/18 15:21,503
12/9/18 15:21,505
12/9/18 15:21,504
12/9/18 15:21,506
12/9/18 15:21,507
12/9/18 15:21,505
12/9/18 15:21,508
12/9/18 15:21,477
12/9/18 15:21,452
12/9/18 15:21,528
12/9/18 15:21,532
12/9/18 15:21,530
12/9/18 15:21,521
12/9/18 15:21,515
12/9/18 15:21,513
12/9/18 15:21,509
12/9/18 15:21,509
12/9/18 15:21,503
12/9/18 15:21,504
12/9/18 15:21,505
12/9/18 15:21,502
12/9/18 15:21,504
12/9/18 15:21,501
12/9/18 15:21,501
12/9/18 15:21,503
12/9/18 15:21,500
12/9/18 15:21,503
12/9/18 15:21,500
12/9/18 15:21,502
12/9/18 15:21,501
12/9/18 15:21,500
12/9/18 15:21,504
12/9/18 15:21,501
12/9/18 15:21,504
12/9/18 15:21,503
12/9/18 15:21,500
12/9/18 15:21,504
12/9/18 15:21,501
12/9/18 15:21,503
12/9/18 15:21,501
12/9/18 15:21,501
12/9/18 15:21,503
12/9/18 15:21,503
12/9/18 15:21,505
12/9/18 15:21,504
12/9/18 15:21,503
12/9/18 15:21,507
12/9/18 15:21,502
12/9/18 15:21,505
12/9/18 15:21,502
12/9/18 15:21,503
12/9/18 15:21,505
12/9/18 15:21,502
12/9/18 15:21,504
12/9/18 15:21,504
12/9/18 15:21,503
12/9/18 15:21,504
12/9/18 15:21,474
12/9/18 15:21,515
12/9/18 15:21,514
12/9/18 15:21,511
12/9/18 15:21,508
12/9/18 15:21,503
12/9/18 15:21,443
12/9/18 15:21,502
12/9/18 15:21,522
12/9/18 15:21,522
12/9/18 15:21,516
12/9/18 15:21,513
12/9/18 15:21,508
12/9/18 15:21,507
12/9/18 15:21,505
12/9/18 15:21,503
12/9/18 15:21,505
12/9/18 15:21,500
12/9/18 15:21,501
12/9/18 15:21,504
12/9/18 15:21,501
12/9/18 15:21,504
12/9/18 15:21,500
12/9/18 15:21,501
12/9/18 15:21,503
12/9/18 15:21,500
12/9/18 15:21,503
12/9/18 15:21,502
12/9/18 15:21,501
12/9/18 15:21,503
12/9/18 15:21,501
12/9/18 15:21,505
12/9/18 15:21,504
12/9/18 15:21,506
12/9/18 15:21,504
12/9/18 15:21,503
12/9/18 15:21,506
12/9/18 15:21,503
12/9/18 15:21,504
12/9/18 15:21,503
12/9/18 15:21,501
12/9/18 15:21,505
12/9/18 15:21,504
12/9/18 15:21,505
12/9/18 15:21,504
12/9/18 15:21,506
12/9/18 15:21,495
12/9/18 15:21,464
12/9/18 15:21,525
12/9/18 15:21,535
12/9/18 15:21,519
12/9/18 15:21,506
12/9/18 15:21,505
12/9/18 15:21,502
12/9/18 15:21,503
12/9/18 15:21,502
12/9/18 15:21,508
12/9/18 15:21,505
12/9/18 15:21,503
12/9/18 15:21,502
12/9/18 15:21,499
12/9/18 15:21,502
12/9/18 15:21,500
12/9/18 15:21,501
12/9/18 15:21,500
12/9/18 15:21,475
12/9/18 15:21,505
12/9/18 15:21,511
12/9/18 15:21,506
12/9/18 15:21,442
12/9/18 15:21,508
12/9/18 15:21,522
12/9/18 15:21,517
12/9/18 15:21,515
12/9/18 15:21,510
12/9/18 15:21,507
12/9/18 15:21,506
12/9/18 15:21,502
12/9/18 15:21,503
12/9/18 15:21,504
12/9/18 15:21,502
12/9/18 15:21,504
12/9/18 15:21,502
12/9/18 15:21,505
12/9/18 15:21,503
12/9/18 15:21,502
12/9/18 15:21,505
12/9/18 15:21,503
12/9/18 15:21,505
12/9/18 15:21,503
12/9/18 15:21,503
12/9/18 15:21,504
12/9/18 15:21,503
12/9/18 15:21,504
12/9/18 15:21,504
12/9/18 15:21,503
12/9/18 15:21,506
12/9/18 15:21,503
12/9/18 15:21,505
12/9/18 15:21,503
12/9/18 15:21,503
12/9/18 15:21,507
12/9/18 15:21,502
12/9/18 15:21,505
12/9/18 15:21,502
12/9/18 15:21,503
12/9/18 15:21,504
12/9/18 15:21,502
12/9/18 15:21,504
12/9/18 15:21,500
12/9/18 15:21,448
12/9/18 15:21,513
12/9/18 15:21,520
12/9/18 15:21,496
12/9/18 15:21,526
12/9/18 15:21,521
12/9/18 15:21,516
12/9/18 15:21,508
12/9/18 15:21,509
12/9/18 15:21,504
12/9/18 15:21,503
12/9/18 15:21,504
12/9/18 15:21,501
12/9/18 15:21,503
12/9/18 15:21,501
12/9/18 15:21,502
12/9/18 15:21,501
12/9/18 15:21,500
12/9/18 15:21,503
12/9/18 15:21,502
12/9/18 15:21,501
12/9/18 15:21,500
12/9/18 15:21,498
12/9/18 15:21,502
12/9/18 15:21,501
12/9/18 15:21,502
12/9/18 15:21,502
12/9/18 15:21,501
12/9/18 15:21,503
12/9/18 15:21,502
12/9/18 15:21,504
12/9/18 15:21,503
12/9/18 15:21,502
12/9/18 15:21,506
12/9/18 15:21,503
12/9/18 15:21,504
12/9/18 15:21,506
12/9/18 15:21,502
12/9/18 15:21,504
12/9/18 15:21,503
12/9/18 15:21,505
12/9/18 15:21,503
12/9/18 15:21,501
12/9/18 15:21,506
12/9/18 15:21,502
12/9/18 15:21,503
12/9/18 15:21,503
12/9/18 15:21,503
12/9/18 15:21,505
12/9/18 15:21,497
12/9/18 15:21,449
12/9/18 15:21,514
12/9/18 15:21,522
12/9/18 15:21,521
12/9/18 15:21,488
12/9/18 15:21,523
12/9/18 15:21,520
12/9/18 15:21,513
12/9/18 15:21,510
12/9/18 15:21,504
12/9/18 15:21,504
12/9/18 15:21,502
12/9/18 15:21,501
12/9/18 15:21,503
12/9/18 15:21,500
12/9/18 15:21,502
12/9/18 15:21,514
12/9/18 15:21,456
12/9/18 15:21,477
12/9/18 15:21,536
12/9/18 15:21,530
12/9/18 15:21,508
12/9/18 15:21,502
12/9/18 15:21,508
12/9/18 15:21,505
12/9/18 15:21,503
12/9/18 15:21,501
12/9/18 15:21,499
12/9/18 15:21,502
12/9/18 15:21,499
12/9/18 15:21,502
12/9/18 15:21,501
12/9/18 15:21,501
12/9/18 15:21,503
12/9/18 15:21,501
12/9/18 15:21,502
12/9/18 15:21,501
12/9/18 15:21,500
12/9/18 15:21,501
12/9/18 15:21,500
12/9/18 15:21,504
12/9/18 15:21,500
12/9/18 15:21,503
12/9/18 15:21,505
12/9/18 15:21,504
12/9/18 15:21,504
12/9/18 15:21,504
12/9/18 15:21,503
12/9/18 15:21,506
12/9/18 15:21,502
12/9/18 15:21,507
12/9/18 15:21,506
12/9/18 15:21,507
12/9/18 15:21,505
12/9/18 15:21,504
12/9/18 15:21,507
12/9/18 15:21,504
12/9/18 15:21,505
12/9/18 15:21,506
12/9/18 15:21,504
12/9/18 15:21,507
12/9/18 15:21,504
12/9/18 15:21,505
12/9/18 15:21,505
12/9/18 15:21,503
12/9/18 15:21,505
12/9/18 15:21,503
12/9/18 15:21,505
12/9/18 15:21,503
12/9/18 15:21,500
12/9/18 15:21,505
12/9/18 15:21,502
12/9/18 15:21,502
12/9/18 15:21,504
12/9/18 15:21,500
12/9/18 15:21,416
12/9/18 15:21,516
12/9/18 15:21,533
12/9/18 15:21,526
12/9/18 15:21,520
12/9/18 15:21,516
12/9/18 15:21,509
12/9/18 15:21,509
12/9/18 15:21,508
12/9/18 15:21,503
12/9/18 15:21,505
12/9/18 15:21,501
12/9/18 15:21,503
12/9/18 15:21,502
12/9/18 15:21,501
12/9/18 15:21,503
12/9/18 15:21,499
12/9/18 15:21,503
12/9/18 15:21,502
12/9/18 15:21,501
12/9/18 15:21,505
12/9/18 15:21,500
12/9/18 15:21,503
12/9/18 15:21,501
12/9/18 15:30,489
12/9/18 15:30,497
12/9/18 15:30,518
12/9/18 15:30,513
12/9/18 15:30,500
12/9/18 15:30,452
12/9/18 15:30,516
12/9/18 15:30,525
12/9/18 15:30,520
12/9/18 15:30,514
12/9/18 15:30,513
12/9/18 15:30,507
12/9/18 15:30,505
12/9/18 15:30,503
12/9/18 15:30,502
12/9/18 15:30,505
12/9/18 15:30,500
12/9/18 15:30,504
12/9/18 15:30,502
12/9/18 15:30,502
12/9/18 15:30,503
12/9/18 15:30,500
12/9/18 15:30,503
12/9/18 15:30,502
12/9/18 15:30,502
12/9/18 15:30,503
12/9/18 15:30,499
12/9/18 15:30,504
12/9/18 15:30,500
12/9/18 15:30,501
12/9/18 15:30,504
12/9/18 15:30,503
12/9/18 15:30,505
12/9/18 15:30,502
12/9/18 15:30,503
12/9/18 15:30,504
12/9/18 15:30,501
12/9/18 15:30,504
12/9/18 15:30,504
12/9/18 15:30,502
12/9/18 15:30,506
12/9/18 15:30,502
12/9/18 15:30,504
12/9/18 15:30,503
12/9/18 15:30,502
12/9/18 15:30,504
12/9/18 15:30,502
12/9/18 15:30,502
12/9/18 15:30,421
12/9/18 15:30,517
12/9/18 15:30,537
12/9/18 15:30,526
12/9/18 15:30,521
12/9/18 15:30,513
12/9/18 15:30,510
12/9/18 15:30,507
12/9/18 15:30,501
12/9/18 15:30,505
12/9/18 15:30,503
12/9/18 15:30,502
12/9/18 15:30,503
12/9/18 15:30,500
12/9/18 15:30,506
12/9/18 15:30,485
12/9/18 15:30,468
12/9/18 15:30,522
12/9/18 15:30,532
12/9/18 15:30,518
12/9/18 15:30,502
12/9/18 15:30,501
12/9/18 15:30,500
12/9/18 15:30,502
12/9/18 15:30,502
12/9/18 15:30,501
12/9/18 15:30,504
12/9/18 15:30,499
12/9/18 15:30,501
12/9/18 15:30,506
12/9/18 15:30,501
12/9/18 15:30,504
12/9/18 15:30,502
12/9/18 15:30,499
12/9/18 15:30,503
12/9/18 15:30,500
12/9/18 15:30,503
12/9/18 15:30,503
12/9/18 15:30,502
12/9/18 15:30,502
12/9/18 15:30,501
12/9/18 15:30,504
12/9/18 15:30,502
12/9/18 15:30,501
12/9/18 15:30,503
12/9/18 15:30,500
12/9/18 15:30,503
12/9/18 15:30,502
12/9/18 15:30,502
12/9/18 15:30,503
12/9/18 15:30,501
12/9/18 15:30,503
12/9/18 15:30,504
12/9/18 15:30,502
12/9/18 15:30,505
12/9/18 15:30,502
12/9/18 15:30,505
12/9/18 15:30,506
12/9/18 15:30,504
12/9/18 15:30,504
12/9/18 15:30,489
12/9/18 15:30,465
12/9/18 15:30,523
12/9/18 15:30,527
12/9/18 15:30,524
12/9/18 15:30,518
12/9/18 15:30,512
12/9/18 15:30,489
12/9/18 15:30,519
12/9/18 15:30,518
12/9/18 15:30,513
12/9/18 15:30,510
12/9/18 15:30,504
12/9/18 15:30,503
12/9/18 15:30,503
12/9/18 15:30,500
12/9/18 15:30,503
12/9/18 15:30,501
12/9/18 15:30,503
12/9/18 15:30,502
12/9/18 15:30,501
12/9/18 15:30,503
12/9/18 15:30,501
12/9/18 15:30,502
12/9/18 15:30,504
12/9/18 15:30,501
12/9/18 15:30,503
12/9/18 15:30,502
12/9/18 15:30,502
12/9/18 15:30,502
12/9/18 15:30,501
12/9/18 15:30,505
12/9/18 15:30,505
12/9/18 15:30,505
12/9/18 15:30,502
12/9/18 15:30,503
12/9/18 15:30,504
12/9/18 15:30,502
12/9/18 15:30,504
12/9/18 15:30,503
12/9/18 15:30,501
12/9/18 15:30,504
12/9/18 15:30,476
12/9/18 15:30,511
12/9/18 15:30,515
12/9/18 15:30,510
12/9/18 15:30,508
12/9/18 15:30,505
12/9/18 15:30,505
12/9/18 15:30,505
12/9/18 15:30,501
12/9/18 15:30,503
12/9/18 15:30,471
12/9/18 15:30,477
12/9/18 15:30,523
12/9/18 15:30,522
12/9/18 15:30,519
12/9/18 15:30,513
12/9/18 15:30,511
12/9/18 15:30,507
12/9/18 15:30,505
12/9/18 15:30,505
12/9/18 15:30,503
12/9/18 15:30,505
12/9/18 15:30,503
12/9/18 15:30,501
12/9/18 15:30,505
12/9/18 15:30,502
12/9/18 15:30,503
12/9/18 15:30,502
12/9/18 15:30,491
12/9/18 15:30,440
12/9/18 15:30,510
12/9/18 15:30,534
12/9/18 15:30,525
12/9/18 15:30,517
12/9/18 15:30,512
12/9/18 15:30,508
12/9/18 15:30,521
12/9/18 15:30,459
12/9/18 15:30,487
12/9/18 15:30,534
12/9/18 15:30,525
12/9/18 15:30,511
12/9/18 15:30,498
12/9/18 15:30,500
12/9/18 15:30,506
12/9/18 15:30,499
12/9/18 15:30,501
12/9/18 15:30,501
12/9/18 15:30,502
12/9/18 15:30,504
12/9/18 15:30,503
12/9/18 15:30,500
12/9/18 15:30,496
12/9/18 15:30,496
12/9/18 15:30,500
12/9/18 15:30,498
12/9/18 15:30,501
12/9/18 15:30,499
12/9/18 15:30,500
12/9/18 15:30,502
12/9/18 15:30,499
12/9/18 15:30,503
12/9/18 15:30,501
12/9/18 15:30,503
12/9/18 15:30,503
12/9/18 15:30,500
12/9/18 15:30,503
12/9/18 15:30,501
12/9/18 15:30,504
12/9/18 15:30,504
12/9/18 15:30,501
12/9/18 15:30,506
12/9/18 15:30,502
12/9/18 15:30,503
12/9/18 15:30,506
12/9/18 15:30,504
12/9/18 15:30,506
12/9/18 15:30,506
12/9/18 15:30,505
12/9/18 15:30,505
12/9/18 15:30,505
12/9/18 15:30,507
12/9/18 15:30,506
12/9/18 15:30,506
12/9/18 15:30,508
12/9/18 15:30,503
12/9/18 15:30,505
12/9/18 15:30,505
12/9/18 15:30,506
12/9/18 15:30,505
12/9/18 15:30,503
12/9/18 15:30,506
12/9/18 15:30,503
12/9/18 15:30,505
12/9/18 15:30,504
12/9/18 15:30,502
12/9/18 15:30,505
12/9/18 15:30,502
12/9/18 15:30,503
12/9/18 15:30,505
12/9/18 15:30,502
12/9/18 15:30,505
12/9/18 15:30,492
12/9/18 15:30,456
12/9/18 15:30,490
12/9/18 15:30,530
12/9/18 15:30,532
12/9/18 15:30,523
12/9/18 15:30,517
12/9/18 15:30,511
12/9/18 15:30,507
12/9/18 15:30,508
12/9/18 15:30,503
12/9/18 15:30,503
12/9/18 15:30,501
12/9/18 15:30,500
12/9/18 15:30,503
12/9/18 15:30,501
12/9/18 15:30,501
12/9/18 15:30,501
12/9/18 15:30,502
12/9/18 15:30,504
12/9/18 15:30,500
12/9/18 15:30,504
12/9/18 15:30,500
12/9/18 15:30,502
12/9/18 15:30,505
12/9/18 15:30,501
12/9/18 15:30,504
12/9/18 15:30,501
12/9/18 15:30,502
12/9/18 15:30,487
12/9/18 15:30,464
12/9/18 15:30,524
12/9/18 15:30,524
12/9/18 15:30,520
12/9/18 15:30,515
12/9/18 15:30,508
12/9/18 15:30,511
12/9/18 15:30,507
12/9/18 15:30,504
12/9/18 15:30,503
12/9/18 15:30,503
12/9/18 15:30,504
12/9/18 15:30,502
12/9/18 15:30,501
12/9/18 15:30,502
12/9/18 15:30,501
12/9/18 15:30,505
12/9/18 15:30,500
12/9/18 15:30,502
12/9/18 15:30,502
12/9/18 15:30,502
12/9/18 15:30,499
12/9/18 15:30,467
12/9/18 15:30,510
12/9/18 15:30,535
12/9/18 15:30,523
12/9/18 15:30,485
12/9/18 15:30,506
12/9/18 15:30,518
12/9/18 15:30,513
12/9/18 15:30,504
12/9/18 15:30,504
12/9/18 15:30,499
12/9/18 15:30,450
12/9/18 15:30,517
12/9/18 15:30,523
12/9/18 15:30,517
12/9/18 15:30,508
12/9/18 15:30,507
12/9/18 15:30,502
12/9/18 15:30,501
12/9/18 15:30,503
12/9/18 15:30,499
12/9/18 15:30,500
12/9/18 15:30,500
12/9/18 15:30,499
12/9/18 15:30,502
12/9/18 15:30,499
12/9/18 15:30,500
12/9/18 15:30,501
12/9/18 15:30,502
12/9/18 15:30,502
12/9/18 15:30,501
12/9/18 15:30,503
12/9/18 15:30,503
12/9/18 15:30,501
12/9/18 15:30,506
12/9/18 15:30,504
12/9/18 15:30,505
12/9/18 15:30,505
12/9/18 15:30,503
12/9/18 15:30,508
12/9/18 15:30,502
12/9/18 15:30,506
12/9/18 15:30,505
12/9/18 15:30,503
12/9/18 15:30,506
12/9/18 15:30,504
12/9/18 15:30,506
12/9/18 15:30,505
12/9/18 15:30,505
12/9/18 15:30,506
12/9/18 15:30,503
12/9/18 15:30,506
12/9/18 15:30,503
12/9/18 15:30,501
12/9/18 15:30,467
12/9/18 15:30,475
12/9/18 15:30,513
12/9/18 15:30,536
12/9/18 15:30,525
12/9/18 15:30,520
12/9/18 15:30,510
12/9/18 15:30,508
12/9/18 15:30,505
12/9/18 15:30,502
12/9/18 15:30,502
12/9/18 15:30,498
12/9/18 15:30,501
12/9/18 15:30,499
12/9/18 15:30,500
12/9/18 15:30,504
12/9/18 15:30,500
12/9/18 15:30,504
12/9/18 15:30,501
12/9/18 15:30,502
12/9/18 15:30,504
12/9/18 15:30,501
12/9/18 15:30,504
12/9/18 15:30,502
12/9/18 15:30,503
12/9/18 15:30,503
12/9/18 15:30,502
12/9/18 15:30,504
12/9/18 15:30,503
12/9/18 15:30,504
12/9/18 15:30,506
12/9/18 15:30,502
12/9/18 15:30,504
12/9/18 15:30,502
12/9/18 15:30,504
12/9/18 15:30,503
12/9/18 15:30,501
12/9/18 15:30,504
12/9/18 15:30,501
12/9/18 15:30,505
12/9/18 15:30,505
12/9/18 15:30,503
12/9/18 15:30,505
12/9/18 15:30,502
12/9/18 15:30,504
12/9/18 15:30,504
12/9/18 15:30,503
12/9/18 15:30,474
12/9/18 15:30,472
12/9/18 15:30,499
12/9/18 15:30,536
12/9/18 15:30,529
12/9/18 15:30,522
12/9/18 15:30,514
12/9/18 15:30,511
12/9/18 15:30,506
12/9/18 15:30,503
12/9/18 15:30,505
12/9/18 15:30,502
12/9/18 15:30,505
12/9/18 15:30,516
12/9/18 15:30,459
12/9/18 15:30,490
12/9/18 15:30,534
12/9/18 15:30,526
12/9/18 15:30,513
12/9/18 15:30,500
12/9/18 15:30,505
12/9/18 15:30,504
12/9/18 15:30,505
12/9/18 15:30,503
12/9/18 15:30,501
12/9/18 15:30,501
12/9/18 15:30,498
12/9/18 15:30,499
12/9/18 15:30,498
12/9/18 15:30,498
12/9/18 15:30,502
12/9/18 15:30,497
12/9/18 15:30,500
12/9/18 15:30,499
12/9/18 15:30,500
12/9/18 15:30,502
12/9/18 15:30,499
12/9/18 15:30,501
12/9/18 15:30,447
12/9/18 15:30,495
12/9/18 15:30,526
12/9/18 15:30,520
12/9/18 15:30,519
12/9/18 15:30,513
12/9/18 15:30,508
12/9/18 15:30,508
12/9/18 15:30,505
12/9/18 15:30,497
12/9/18 15:30,494
12/9/18 15:30,517
12/9/18 15:30,515
12/9/18 15:30,507
12/9/18 15:30,508
12/9/18 15:30,505
12/9/18 15:30,503
12/9/18 15:30,505
12/9/18 15:30,502
12/9/18 15:30,504
12/9/18 15:30,502
12/9/18 15:30,501
12/9/18 15:30,502
12/9/18 15:30,501
12/9/18 15:30,503
12/9/18 15:30,503
12/9/18 15:30,502
12/9/18 15:30,504
12/9/18 15:30,502
12/9/18 15:30,505
12/9/18 15:30,502
12/9/18 15:30,504
12/9/18 15:30,503
12/9/18 15:30,500
12/9/18 15:30,505
12/9/18 15:30,503
12/9/18 15:30,505
12/9/18 15:30,504
12/9/18 15:30,500
12/9/18 15:30,503
12/9/18 15:30,501
12/9/18 15:30,503
12/9/18 15:30,501
12/9/18 15:30,454
12/9/18 15:30,487
12/9/18 15:30,533
12/9/18 15:30,530
12/9/18 15:30,525
12/9/18 15:30,517
12/9/18 15:30,512
12/9/18 15:30,505
12/9/18 15:30,507
12/9/18 15:30,504
12/9/18 15:30,501
12/9/18 15:30,503
12/9/18 15:30,501
12/9/18 15:30,503
12/9/18 15:30,500
12/9/18 15:30,499
12/9/18 15:30,503
12/9/18 15:30,502
12/9/18 15:30,501
12/9/18 15:30,501
12/9/18 15:30,502
12/9/18 15:30,502
12/9/18 15:30,500
12/9/18 15:30,504
12/9/18 15:30,502
12/9/18 15:30,501
12/9/18 15:30,504
12/9/18 15:30,502
12/9/18 15:30,505
12/9/18 15:30,504
12/9/18 15:30,504
12/9/18 15:30,505
12/9/18 15:30,502
12/9/18 15:30,505
12/9/18 15:30,504
12/9/18 15:30,503
12/9/18 15:30,504
12/9/18 15:30,501
12/9/18 15:30,504
12/9/18 15:30,504
12/9/18 15:30,500
12/9/18 15:30,503
12/9/18 15:30,502
12/9/18 15:30,504
12/9/18 15:30,504
12/9/18 15:30,504
12/9/18 15:30,504
12/9/18 15:30,503
12/9/18 15:30,504
12/9/18 15:30,509
12/9/18 15:30,468
12/9/18 15:30,477
12/9/18 15:30,530
12/9/18 15:30,535
12/9/18 15:30,515
12/9/18 15:30,508
12/9/18 15:30,505
12/9/18 15:30,497
12/9/18 15:30,503
12/9/18 15:30,504
12/9/18 15:30,501
12/9/18 15:30,505
12/9/18 15:30,505
12/9/18 15:30,507
12/9/18 15:30,501
12/9/18 15:30,499
12/9/18 15:30,433
12/9/18 15:30,499
12/9/18 15:30,524
12/9/18 15:30,518
12/9/18 15:30,516
12/9/18 15:30,512
12/9/18 15:30,506
12/9/18 15:30,505
12/9/18 15:30,473
12/9/18 15:30,511
12/9/18 15:30,515
12/9/18 15:30,509
12/9/18 15:30,507
12/9/18 15:30,502
12/9/18 15:30,502
12/9/18 15:30,501
12/9/18 15:30,502
12/9/18 15:30,503
12/9/18 15:30,501
12/9/18 15:30,503
12/9/18 15:30,503
12/9/18 15:30,502
12/9/18 15:30,505
12/9/18 15:30,503
12/9/18 15:30,505
12/9/18 15:30,505
12/9/18 15:30,503
12/9/18 15:30,507
12/9/18 15:30,503
12/9/18 15:30,505
12/9/18 15:30,504
12/9/18 15:30,504
12/9/18 15:30,507
12/9/18 15:30,502
12/9/18 15:30,505
12/9/18 15:30,502
12/9/18 15:30,503
12/9/18 15:30,506
12/9/18 15:30,501
12/9/18 15:30,504
12/9/18 15:30,504
12/9/18 15:30,502
12/9/18 15:30,504
12/9/18 15:30,504
12/9/18 15:30,505
12/9/18 15:30,502
12/9/18 15:30,504
12/9/18 15:30,505
12/9/18 15:39,504
12/9/18 15:39,502
12/9/18 15:39,505
12/9/18 15:39,498
12/9/18 15:39,506
12/9/18 15:39,502
12/9/18 15:39,503
12/9/18 15:39,509
12/9/18 15:39,501
12/9/18 15:39,509
12/9/18 15:39,503
12/9/18 15:39,504
12/9/18 15:39,506
12/9/18 15:39,500
12/9/18 15:39,508
12/9/18 15:39,503
12/9/18 15:39,505
12/9/18 15:39,507
12/9/18 15:39,500
12/9/18 15:39,507
12/9/18 15:39,499
12/9/18 15:39,504
12/9/18 15:39,508
12/9/18 15:39,502
12/9/18 15:39,508
12/9/18 15:39,474
12/9/18 15:39,507
12/9/18 15:39,466
12/9/18 15:39,519
12/9/18 15:39,531
12/9/18 15:39,519
12/9/18 15:39,518
12/9/18 15:39,514
12/9/18 15:39,507
12/9/18 15:39,511
12/9/18 15:39,500
12/9/18 15:39,506
12/9/18 15:39,504
12/9/18 15:39,499
12/9/18 15:39,507
12/9/18 15:39,498
12/9/18 15:39,503
12/9/18 15:39,502
12/9/18 15:39,500
12/9/18 15:39,505
12/9/18 15:39,496
12/9/18 15:39,504
12/9/18 15:39,503
12/9/18 15:39,501
12/9/18 15:39,507
12/9/18 15:39,499
12/9/18 15:39,504
12/9/18 15:39,490
12/9/18 15:39,498
12/9/18 15:39,520
12/9/18 15:39,506
12/9/18 15:39,508
12/9/18 15:39,504
12/9/18 15:39,500
12/9/18 15:39,505
12/9/18 15:39,498
12/9/18 15:39,506
12/9/18 15:39,501
12/9/18 15:39,500
12/9/18 15:39,506
12/9/18 15:39,500
12/9/18 15:39,506
12/9/18 15:39,502
12/9/18 15:39,500
12/9/18 15:39,505
12/9/18 15:39,499
12/9/18 15:39,507
12/9/18 15:39,500
12/9/18 15:39,502
12/9/18 15:39,507
12/9/18 15:39,500
12/9/18 15:39,506
12/9/18 15:39,450
12/9/18 15:39,493
12/9/18 15:39,526
12/9/18 15:39,516
12/9/18 15:39,522
12/9/18 15:39,513
12/9/18 15:39,509
12/9/18 15:39,511
12/9/18 15:39,502
12/9/18 15:39,510
12/9/18 15:39,501
12/9/18 15:39,505
12/9/18 15:39,507
12/9/18 15:39,499
12/9/18 15:39,507
12/9/18 15:39,499
12/9/18 15:39,516
12/9/18 15:39,462
12/9/18 15:39,473
12/9/18 15:39,540
12/9/18 15:39,528
12/9/18 15:39,513
12/9/18 15:39,503
12/9/18 15:39,496
12/9/18 15:39,502
12/9/18 15:39,504
12/9/18 15:39,504
12/9/18 15:39,505
12/9/18 15:39,500
12/9/18 15:39,506
12/9/18 15:39,500
12/9/18 15:39,501
12/9/18 15:39,502
12/9/18 15:39,496
12/9/18 15:39,504
12/9/18 15:39,497
12/9/18 15:39,501
12/9/18 15:39,502
12/9/18 15:39,497
12/9/18 15:39,504
12/9/18 15:39,499
12/9/18 15:39,504
12/9/18 15:39,504
12/9/18 15:39,500
12/9/18 15:39,507
12/9/18 15:39,499
12/9/18 15:39,504
12/9/18 15:39,505
12/9/18 15:39,501
12/9/18 15:39,507
12/9/18 15:39,501
12/9/18 15:39,509
12/9/18 15:39,505
12/9/18 15:39,501
12/9/18 15:39,508
12/9/18 15:39,501
12/9/18 15:39,505
12/9/18 15:39,507
12/9/18 15:39,504
12/9/18 15:39,510
12/9/18 15:39,501
12/9/18 15:39,508
12/9/18 15:39,506
12/9/18 15:39,501
12/9/18 15:39,507
12/9/18 15:39,500
12/9/18 15:39,507
12/9/18 15:39,504
12/9/18 15:39,502
12/9/18 15:39,507
12/9/18 15:39,500
12/9/18 15:39,506
12/9/18 15:39,502
12/9/18 15:39,501
12/9/18 15:39,507
12/9/18 15:39,498
12/9/18 15:39,506
12/9/18 15:39,502
12/9/18 15:39,502
12/9/18 15:39,506
12/9/18 15:39,500
12/9/18 15:39,508
12/9/18 15:39,503
12/9/18 15:39,502
12/9/18 15:39,506
12/9/18 15:39,499
12/9/18 15:39,507
12/9/18 15:39,500
12/9/18 15:39,492
12/9/18 15:39,498
12/9/18 15:39,511
12/9/18 15:39,488
12/9/18 15:39,481
12/9/18 15:39,522
12/9/18 15:39,528
12/9/18 15:39,515
12/9/18 15:39,518
12/9/18 15:39,507
12/9/18 15:39,509
12/9/18 15:39,510
12/9/18 15:39,501
12/9/18 15:39,507
12/9/18 15:39,501
12/9/18 15:39,506
12/9/18 15:39,504
12/9/18 15:39,498
12/9/18 15:39,507
12/9/18 15:39,498
12/9/18 15:39,502
12/9/18 15:39,503
12/9/18 15:39,498
12/9/18 15:39,506
12/9/18 15:39,500
12/9/18 15:39,502
12/9/18 15:39,504
12/9/18 15:39,500
12/9/18 15:39,507
12/9/18 15:39,498
12/9/18 15:39,504
12/9/18 15:39,504
12/9/18 15:39,500
12/9/18 15:39,504
12/9/18 15:39,497
12/9/18 15:39,490
12/9/18 15:39,506
12/9/18 15:39,464
12/9/18 15:39,523
12/9/18 15:39,519
12/9/18 15:39,519
12/9/18 15:39,515
12/9/18 15:39,506
12/9/18 15:39,513
12/9/18 15:39,503
12/9/18 15:39,506
12/9/18 15:39,503
12/9/18 15:39,500
12/9/18 15:39,505
12/9/18 15:39,499
12/9/18 15:39,504
12/9/18 15:39,504
12/9/18 15:39,499
12/9/18 15:39,507
12/9/18 15:39,500
12/9/18 15:39,503
12/9/18 15:39,503
12/9/18 15:39,501
12/9/18 15:39,508
12/9/18 15:39,498
12/9/18 15:39,505
12/9/18 15:39,502
12/9/18 15:39,500
12/9/18 15:39,506
12/9/18 15:39,499
12/9/18 15:39,505
12/9/18 15:39,502
12/9/18 15:39,502
12/9/18 15:39,518
12/9/18 15:39,461
12/9/18 15:39,480
12/9/18 15:39,534
12/9/18 15:39,533
12/9/18 15:39,523
12/9/18 15:39,495
12/9/18 15:39,501
12/9/18 15:39,507
12/9/18 15:39,510
12/9/18 15:39,511
12/9/18 15:39,498
12/9/18 15:39,502
12/9/18 15:39,499
12/9/18 15:39,500
12/9/18 15:39,502
12/9/18 15:39,495
12/9/18 15:39,503
12/9/18 15:39,498
12/9/18 15:39,498
12/9/18 15:39,503
12/9/18 15:39,497
12/9/18 15:39,505
12/9/18 15:39,498
12/9/18 15:39,503
12/9/18 15:39,505
12/9/18 15:39,499
12/9/18 15:39,507
12/9/18 15:39,501
12/9/18 15:39,505
12/9/18 15:39,507
12/9/18 15:39,500
12/9/18 15:39,481
12/9/18 15:39,507
12/9/18 15:39,517
12/9/18 15:39,514
12/9/18 15:39,506
12/9/18 15:39,514
12/9/18 15:39,506
12/9/18 15:39,507
12/9/18 15:39,474
12/9/18 15:39,478
12/9/18 15:39,525
12/9/18 15:39,522
12/9/18 15:39,520
12/9/18 15:39,516
12/9/18 15:39,509
12/9/18 15:39,513
12/9/18 15:39,502
12/9/18 15:39,507
12/9/18 15:39,504
12/9/18 15:39,500
12/9/18 15:39,506
12/9/18 15:39,499
12/9/18 15:39,504
12/9/18 15:39,502
12/9/18 15:39,500
12/9/18 15:39,507
12/9/18 15:39,498
12/9/18 15:39,503
12/9/18 15:39,503
12/9/18 15:39,499
12/9/18 15:39,508
12/9/18 15:39,499
12/9/18 15:39,505
12/9/18 15:39,504
12/9/18 15:39,501
12/9/18 15:39,507
12/9/18 15:39,500
12/9/18 15:39,506
12/9/18 15:39,502
12/9/18 15:39,502
12/9/18 15:39,508
12/9/18 15:39,501
12/9/18 15:39,508
12/9/18 15:39,506
12/9/18 15:39,502
12/9/18 15:39,508
12/9/18 15:39,499
12/9/18 15:39,482
12/9/18 15:39,476
12/9/18 15:39,506
12/9/18 15:39,522
12/9/18 15:39,525
12/9/18 15:39,524
12/9/18 15:39,514
12/9/18 15:39,508
12/9/18 15:39,511
12/9/18 15:39,500
12/9/18 15:39,506
12/9/18 15:39,500
12/9/18 15:39,501
12/9/18 15:39,503
12/9/18 15:39,495
12/9/18 15:39,505
12/9/18 15:39,498
12/9/18 15:39,499
12/9/18 15:39,503
12/9/18 15:39,497
12/9/18 15:39,506
12/9/18 15:39,500
12/9/18 15:39,501
12/9/18 15:39,505
12/9/18 15:39,498
12/9/18 15:39,506
12/9/18 15:39,500
12/9/18 15:39,502
12/9/18 15:39,504
12/9/18 15:39,501
12/9/18 15:39,508
12/9/18 15:39,502
12/9/18 15:39,504
12/9/18 15:39,507
12/9/18 15:39,500
12/9/18 15:39,507
12/9/18 15:39,500
12/9/18 15:39,503
12/9/18 15:39,505
12/9/18 15:39,500
12/9/18 15:39,493
12/9/18 15:39,461
12/9/18 15:39,520
12/9/18 15:39,506
12/9/18 15:39,520
12/9/18 15:39,531
12/9/18 15:39,521
12/9/18 15:39,495
12/9/18 15:39,479
12/9/18 15:39,516
12/9/18 15:39,543
12/9/18 15:39,519
12/9/18 15:39,510
12/9/18 15:39,497
12/9/18 15:39,492
12/9/18 15:39,502
12/9/18 15:39,500
12/9/18 15:39,502
12/9/18 15:39,507
12/9/18 15:39,502
12/9/18 15:39,510
12/9/18 15:39,497
12/9/18 15:39,499
12/9/18 15:39,499
12/9/18 15:39,495
12/9/18 15:39,504
12/9/18 15:39,497
12/9/18 15:39,461
12/9/18 15:39,471
12/9/18 15:39,522
12/9/18 15:39,536
12/9/18 15:39,517
12/9/18 15:39,515
12/9/18 15:39,510
12/9/18 15:39,504
12/9/18 15:39,508
12/9/18 15:39,498
12/9/18 15:39,504
12/9/18 15:39,503
12/9/18 15:39,503
12/9/18 15:39,506
12/9/18 15:39,499
12/9/18 15:39,506
12/9/18 15:39,502
12/9/18 15:39,501
12/9/18 15:39,507
12/9/18 15:39,500
12/9/18 15:39,507
12/9/18 15:39,502
12/9/18 15:39,501
12/9/18 15:39,508
12/9/18 15:39,501
12/9/18 15:39,507
12/9/18 15:39,503
12/9/18 15:39,503
12/9/18 15:39,496
12/9/18 15:39,454
12/9/18 15:39,521
12/9/18 15:39,521
12/9/18 15:39,517
12/9/18 15:39,517
12/9/18 15:39,506
12/9/18 15:39,512
12/9/18 15:39,504
12/9/18 15:39,505
12/9/18 15:39,507
12/9/18 15:39,499
12/9/18 15:39,507
12/9/18 15:39,501
12/9/18 15:39,502
12/9/18 15:39,505
12/9/18 15:39,497
12/9/18 15:39,507
12/9/18 15:39,499
12/9/18 15:39,503
12/9/18 15:39,504
12/9/18 15:39,498
12/9/18 15:39,506
12/9/18 15:39,500
12/9/18 15:39,503
12/9/18 15:39,505
12/9/18 15:39,499
12/9/18 15:39,508
12/9/18 15:39,500
12/9/18 15:39,504
12/9/18 15:39,505
12/9/18 15:39,500
12/9/18 15:39,507
12/9/18 15:39,501
12/9/18 15:39,505
12/9/18 15:39,504
12/9/18 15:39,501
12/9/18 15:39,508
12/9/18 15:39,500
12/9/18 15:39,505
12/9/18 15:39,505
12/9/18 15:39,499
12/9/18 15:39,507
12/9/18 15:39,501
12/9/18 15:39,506
12/9/18 15:39,504
12/9/18 15:39,501
12/9/18 15:39,507
12/9/18 15:39,500
12/9/18 15:39,506
12/9/18 15:39,505
12/9/18 15:39,501
12/9/18 15:39,508
12/9/18 15:39,499
12/9/18 15:39,506
12/9/18 15:39,505
12/9/18 15:39,502
12/9/18 15:39,505
12/9/18 15:39,499
12/9/18 15:39,506
12/9/18 15:39,503
12/9/18 15:39,502
12/9/18 15:39,507
12/9/18 15:39,500
12/9/18 15:39,508
12/9/18 15:39,503
12/9/18 15:39,501
12/9/18 15:39,508
12/9/18 15:39,500
12/9/18 15:39,507
12/9/18 15:39,503
12/9/18 15:39,501
12/9/18 15:39,506
12/9/18 15:39,500
12/9/18 15:39,507
12/9/18 15:39,502
12/9/18 15:39,501
12/9/18 15:39,507
12/9/18 15:39,501
12/9/18 15:39,516
12/9/18 15:39,460
12/9/18 15:39,499
12/9/18 15:39,538
12/9/18 15:39,507
12/9/18 15:39,438
12/9/18 15:39,513
12/9/18 15:39,531
12/9/18 15:39,531
12/9/18 15:39,517
12/9/18 15:39,517
12/9/18 15:39,507
12/9/18 15:39,508
12/9/18 15:39,502
12/9/18 15:39,501
12/9/18 15:39,506
12/9/18 15:39,498
12/9/18 15:39,500
12/9/18 15:39,504
12/9/18 15:39,495
12/9/18 15:39,504
12/9/18 15:39,498
12/9/18 15:39,501
12/9/18 15:39,505
12/9/18 15:39,497
12/9/18 15:39,505
12/9/18 15:39,498
12/9/18 15:39,501
12/9/18 15:39,503
12/9/18 15:39,496
12/9/18 15:39,500
12/9/18 15:39,489
12/9/18 15:39,516
12/9/18 15:39,514
12/9/18 15:39,504
12/9/18 15:39,509
12/9/18 15:39,501
12/9/18 15:39,503
12/9/18 15:39,505
12/9/18 15:39,502
12/9/18 15:39,507
12/9/18 15:39,501
12/9/18 15:39,507
12/9/18 15:39,504
12/9/18 15:39,502
12/9/18 15:39,509
12/9/18 15:39,502
12/9/18 15:39,507
12/9/18 15:39,504
12/9/18 15:39,503
12/9/18 15:39,507
12/9/18 15:39,501
12/9/18 15:39,507
12/9/18 15:39,503
12/9/18 15:39,500
12/9/18 15:39,506
12/9/18 15:39,498
12/9/18 15:39,471
12/9/18 15:39,480
12/9/18 15:39,517
12/9/18 15:39,526
12/9/18 15:39,515
12/9/18 15:39,517
12/9/18 15:39,510
12/9/18 15:39,507
12/9/18 15:39,511
12/9/18 15:39,500
12/9/18 15:39,507
12/9/18 15:39,503
12/9/18 15:39,500
12/9/18 15:39,505
12/9/18 15:39,498
12/9/18 15:39,505
12/9/18 15:39,500
12/9/18 15:39,500
12/9/18 15:39,507
12/9/18 15:39,498
12/9/18 15:39,506
12/9/18 15:39,502
12/9/18 15:39,481
12/9/18 15:39,507
12/9/18 15:39,511
12/9/18 15:39,514
12/9/18 15:39,506
12/9/18 15:39,504
12/9/18 15:39,508
12/9/18 15:39,499
12/9/18 15:39,506
12/9/18 15:39,500
12/9/18 15:39,502
12/9/18 15:39,506
12/9/18 15:39,498
12/9/18 15:39,496
12/9/18 15:39,460
12/9/18 15:39,516
12/9/18 15:39,524
12/9/18 15:39,512
12/9/18 15:39,518
12/9/18 15:39,508
12/9/18 15:39,508
12/9/18 15:39,508
12/9/18 15:39,500
12/9/18 15:39,507
12/9/18 15:39,500
12/9/18 15:39,502
12/9/18 15:39,504
12/9/18 15:39,498
12/9/18 15:39,503
12/9/18 15:39,483
12/9/18 15:39,514
12/9/18 15:39,512
12/9/18 15:39,503
12/9/18 15:39,510
12/9/18 15:39,501
12/9/18 15:48,502
12/9/18 15:48,503
12/9/18 15:48,501
12/9/18 15:48,505
12/9/18 15:48,503
12/9/18 15:48,504
12/9/18 15:48,503
12/9/18 15:48,502
12/9/18 15:48,507
12/9/18 15:48,502
12/9/18 15:48,503
12/9/18 15:48,505
12/9/18 15:48,503
12/9/18 15:48,505
12/9/18 15:48,503
12/9/18 15:48,503
12/9/18 15:48,445
12/9/18 15:48,499
12/9/18 15:48,523
12/9/18 15:48,521
12/9/18 15:48,499
12/9/18 15:48,514
12/9/18 15:48,519
12/9/18 15:48,515
12/9/18 15:48,509
12/9/18 15:48,506
12/9/18 15:48,504
12/9/18 15:48,501
12/9/18 15:48,504
12/9/18 15:48,499
12/9/18 15:48,501
12/9/18 15:48,501
12/9/18 15:48,500
12/9/18 15:48,502
12/9/18 15:48,499
12/9/18 15:48,502
12/9/18 15:48,503
12/9/18 15:48,500
12/9/18 15:48,502
12/9/18 15:48,501
12/9/18 15:48,505
12/9/18 15:48,502
12/9/18 15:48,502
12/9/18 15:48,503
12/9/18 15:48,500
12/9/18 15:48,504
12/9/18 15:48,501
12/9/18 15:48,503
12/9/18 15:48,503
12/9/18 15:48,501
12/9/18 15:48,505
12/9/18 15:48,503
12/9/18 15:48,504
12/9/18 15:48,505
12/9/18 15:48,503
12/9/18 15:48,507
12/9/18 15:48,502
12/9/18 15:48,505
12/9/18 15:48,516
12/9/18 15:48,463
12/9/18 15:48,477
12/9/18 15:48,533
12/9/18 15:48,530
12/9/18 15:48,511
12/9/18 15:48,504
12/9/18 15:48,505
