X,Bin ECG
12/8/18 13:09,505
12/8/18 13:09,505
12/8/18 13:09,504
12/8/18 13:09,504
12/8/18 13:09,502
12/8/18 13:09,502
12/8/18 13:09,505
12/8/18 13:09,501
12/8/18 13:09,504
12/8/18 13:09,503
12/8/18 13:09,503
12/8/18 13:09,504
12/8/18 13:09,502
12/8/18 13:09,503
12/8/18 13:09,498
12/8/18 13:09,506
12/8/18 13:09,503
12/8/18 13:09,503
12/8/18 13:09,505
12/8/18 13:09,505
12/8/18 13:09,506
12/8/18 13:09,507
12/8/18 13:09,503
12/8/18 13:09,506
12/8/18 13:09,502
12/8/18 13:09,503
12/8/18 13:09,503
12/8/18 13:09,504
12/8/18 13:09,506
12/8/18 13:09,503
12/8/18 13:09,504
12/8/18 13:09,506
12/8/18 13:09,506
12/8/18 13:09,505
12/8/18 13:09,506
12/8/18 13:09,504
12/8/18 13:09,505
12/8/18 13:09,503
12/8/18 13:09,504
12/8/18 13:09,502
12/8/18 13:09,503
12/8/18 13:09,506
12/8/18 13:09,504
12/8/18 13:09,505
12/8/18 13:09,502
12/8/18 13:09,504
12/8/18 13:09,504
12/8/18 13:09,504
12/8/18 13:09,505
12/8/18 13:09,502
12/8/18 13:09,504
12/8/18 13:09,493
12/8/18 13:09,495
12/8/18 13:09,507
12/8/18 13:09,505
12/8/18 13:09,522
12/8/18 13:09,513
12/8/18 13:09,513
12/8/18 13:09,520
12/8/18 13:09,504
12/8/18 13:09,495
12/8/18 13:09,495
12/8/18 13:09,497
12/8/18 13:09,508
12/8/18 13:09,502
12/8/18 13:09,507
12/8/18 13:09,505
12/8/18 13:09,504
12/8/18 13:09,506
12/8/18 13:09,505
12/8/18 13:09,507
12/8/18 13:09,501
12/8/18 13:09,501
12/8/18 13:09,498
12/8/18 13:09,496
12/8/18 13:09,498
12/8/18 13:09,500
12/8/18 13:09,501
12/8/18 13:09,503
12/8/18 13:09,502
12/8/18 13:09,506
12/8/18 13:09,505
12/8/18 13:09,505
12/8/18 13:09,506
12/8/18 13:09,507
12/8/18 13:09,508
12/8/18 13:09,506
12/8/18 13:09,505
12/8/18 13:09,507
12/8/18 13:09,505
12/8/18 13:09,506
12/8/18 13:09,506
12/8/18 13:09,504
12/8/18 13:09,506
12/8/18 13:09,505
12/8/18 13:09,506
12/8/18 13:09,505
12/8/18 13:09,506
12/8/18 13:09,506
12/8/18 13:09,504
12/8/18 13:09,505
12/8/18 13:09,505
12/8/18 13:09,505
12/8/18 13:09,505
12/8/18 13:09,506
12/8/18 13:09,506
12/8/18 13:09,505
12/8/18 13:09,504
12/8/18 13:09,505
12/8/18 13:09,504
12/8/18 13:09,506
12/8/18 13:09,503
12/8/18 13:09,505
12/8/18 13:09,506
12/8/18 13:09,504
12/8/18 13:09,505
12/8/18 13:09,504
12/8/18 13:09,504
12/8/18 13:09,505
12/8/18 13:09,503
12/8/18 13:09,506
12/8/18 13:09,504
12/8/18 13:09,504
12/8/18 13:09,506
12/8/18 13:09,505
12/8/18 13:09,506
12/8/18 13:09,502
12/8/18 13:09,504
12/8/18 13:09,505
12/8/18 13:09,503
12/8/18 13:09,506
12/8/18 13:09,504
12/8/18 13:09,506
12/8/18 13:09,506
12/8/18 13:09,505
12/8/18 13:09,505
12/8/18 13:09,505
12/8/18 13:09,507
12/8/18 13:09,504
12/8/18 13:09,504
12/8/18 13:09,505
12/8/18 13:09,502
12/8/18 13:09,504
12/8/18 13:09,504
12/8/18 13:09,504
12/8/18 13:09,504
12/8/18 13:09,502
12/8/18 13:09,505
12/8/18 13:09,503
12/8/18 13:09,503
12/8/18 13:09,505
12/8/18 13:09,503
12/8/18 13:09,506
12/8/18 13:09,504
12/8/18 13:09,501
12/8/18 13:09,506
12/8/18 13:09,524
12/8/18 13:09,504
12/8/18 13:09,513
12/8/18 13:09,514
12/8/18 13:09,499
12/8/18 13:09,489
12/8/18 13:09,496
12/8/18 13:09,498
12/8/18 13:09,504
12/8/18 13:09,509
12/8/18 13:09,506
12/8/18 13:09,504
12/8/18 13:09,500
12/8/18 13:09,502
12/8/18 13:09,502
12/8/18 13:09,499
12/8/18 13:09,499
12/8/18 13:09,497
12/8/18 13:09,501
12/8/18 13:09,502
12/8/18 13:09,502
12/8/18 13:09,504
12/8/18 13:09,503
12/8/18 13:09,506
12/8/18 13:09,505
12/8/18 13:09,505
12/8/18 13:09,508
12/8/18 13:09,505
12/8/18 13:09,507
12/8/18 13:09,504
12/8/18 13:09,504
12/8/18 13:09,508
12/8/18 13:09,507
12/8/18 13:09,508
12/8/18 13:09,503
12/8/18 13:09,505
12/8/18 13:09,505
12/8/18 13:09,505
12/8/18 13:09,505
12/8/18 13:09,505
12/8/18 13:09,505
12/8/18 13:09,506
12/8/18 13:09,506
12/8/18 13:09,506
12/8/18 13:09,505
12/8/18 13:09,504
12/8/18 13:09,505
12/8/18 13:09,505
12/8/18 13:09,504
12/8/18 13:09,505
12/8/18 13:09,504
12/8/18 13:09,507
12/8/18 13:09,504
12/8/18 13:09,506
12/8/18 13:09,503
12/8/18 13:09,503
12/8/18 13:09,507
12/8/18 13:09,504
12/8/18 13:09,504
12/8/18 13:09,505
12/8/18 13:09,505
12/8/18 13:09,504
12/8/18 13:09,504
12/8/18 13:09,504
12/8/18 13:09,504
12/8/18 13:09,506
12/8/18 13:09,506
12/8/18 13:09,505
12/8/18 13:09,505
12/8/18 13:09,504
12/8/18 13:09,503
12/8/18 13:09,504
12/8/18 13:09,504
12/8/18 13:09,504
12/8/18 13:09,504
12/8/18 13:09,505
12/8/18 13:09,505
12/8/18 13:09,505
12/8/18 13:09,505
12/8/18 13:09,504
12/8/18 13:09,505
12/8/18 13:09,505
12/8/18 13:09,502
12/8/18 13:09,505
12/8/18 13:09,502
12/8/18 13:09,504
12/8/18 13:09,505
12/8/18 13:09,504
12/8/18 13:09,505
12/8/18 13:09,502
12/8/18 13:09,501
12/8/18 13:09,503
12/8/18 13:09,503
12/8/18 13:09,504
12/8/18 13:09,504
12/8/18 13:09,497
12/8/18 13:09,499
12/8/18 13:09,504
12/8/18 13:09,529
12/8/18 13:09,507
12/8/18 13:09,518
12/8/18 13:09,513
12/8/18 13:09,499
12/8/18 13:09,493
12/8/18 13:09,499
12/8/18 13:09,502
12/8/18 13:09,502
12/8/18 13:09,505
12/8/18 13:09,506
12/8/18 13:09,505
12/8/18 13:09,507
12/8/18 13:09,505
12/8/18 13:09,503
12/8/18 13:09,504
12/8/18 13:09,500
12/8/18 13:09,500
12/8/18 13:09,500
12/8/18 13:09,499
12/8/18 13:09,500
12/8/18 13:09,499
12/8/18 13:09,501
12/8/18 13:09,502
12/8/18 13:09,503
12/8/18 13:09,506
12/8/18 13:09,504
12/8/18 13:09,505
12/8/18 13:09,505
12/8/18 13:09,504
12/8/18 13:09,505
12/8/18 13:09,505
12/8/18 13:09,505
12/8/18 13:09,506
12/8/18 13:09,507
12/8/18 13:09,506
12/8/18 13:09,504
12/8/18 13:09,505
12/8/18 13:09,507
12/8/18 13:09,504
12/8/18 13:09,505
12/8/18 13:09,503
12/8/18 13:09,506
12/8/18 13:09,505
12/8/18 13:09,505
12/8/18 13:09,505
12/8/18 13:09,504
12/8/18 13:09,506
12/8/18 13:09,505
12/8/18 13:09,505
12/8/18 13:09,507
12/8/18 13:09,503
12/8/18 13:09,505
12/8/18 13:09,505
12/8/18 13:09,505
12/8/18 13:09,505
12/8/18 13:09,504
12/8/18 13:09,506
12/8/18 13:09,503
12/8/18 13:09,505
12/8/18 13:09,505
12/8/18 13:09,504
12/8/18 13:09,506
12/8/18 13:09,503
12/8/18 13:09,505
12/8/18 13:09,505
12/8/18 13:09,504
12/8/18 13:09,506
12/8/18 13:09,505
12/8/18 13:09,504
12/8/18 13:09,505
12/8/18 13:09,504
12/8/18 13:09,505
12/8/18 13:09,503
12/8/18 13:09,505
12/8/18 13:09,504
12/8/18 13:09,504
12/8/18 13:09,506
12/8/18 13:09,505
12/8/18 13:09,507
12/8/18 13:09,506
12/8/18 13:09,505
12/8/18 13:09,506
12/8/18 13:09,503
12/8/18 13:09,505
12/8/18 13:09,505
12/8/18 13:09,502
12/8/18 13:09,504
12/8/18 13:09,501
12/8/18 13:09,504
12/8/18 13:09,504
12/8/18 13:09,503
12/8/18 13:09,505
12/8/18 13:09,503
12/8/18 13:09,504
12/8/18 13:09,504
12/8/18 13:09,503
12/8/18 13:09,505
12/8/18 13:09,501
12/8/18 13:09,505
12/8/18 13:09,503
12/8/18 13:09,520
12/8/18 13:09,507
12/8/18 13:09,512
12/8/18 13:09,514
12/8/18 13:09,499
12/8/18 13:09,493
12/8/18 13:09,494
12/8/18 13:09,494
12/8/18 13:09,503
12/8/18 13:09,503
12/8/18 13:09,502
12/8/18 13:09,505
12/8/18 13:09,503
12/8/18 13:09,511
12/8/18 13:09,504
12/8/18 13:09,506
12/8/18 13:09,507
12/8/18 13:09,502
12/8/18 13:09,502
12/8/18 13:09,500
12/8/18 13:09,501
12/8/18 13:09,501
12/8/18 13:09,502
12/8/18 13:09,500
12/8/18 13:09,503
12/8/18 13:09,504
12/8/18 13:09,506
12/8/18 13:09,505
12/8/18 13:09,506
12/8/18 13:09,502
12/8/18 13:09,506
12/8/18 13:09,503
12/8/18 13:09,495
12/8/18 13:09,503
12/8/18 13:09,506
12/8/18 13:09,509
12/8/18 13:09,507
12/8/18 13:09,505
12/8/18 13:09,503
12/8/18 13:09,506
12/8/18 13:09,509
12/8/18 13:09,508
12/8/18 13:09,506
12/8/18 13:09,509
12/8/18 13:09,507
12/8/18 13:09,506
12/8/18 13:09,506
12/8/18 13:09,506
12/8/18 13:09,506
12/8/18 13:09,503
12/8/18 13:09,505
12/8/18 13:09,505
12/8/18 13:09,505
12/8/18 13:09,506
12/8/18 13:09,503
12/8/18 13:09,505
12/8/18 13:09,504
12/8/18 13:09,505
12/8/18 13:09,503
12/8/18 13:09,502
12/8/18 13:09,505
12/8/18 13:09,502
12/8/18 13:09,503
12/8/18 13:09,505
12/8/18 13:09,505
12/8/18 13:09,508
12/8/18 13:09,506
12/8/18 13:09,504
12/8/18 13:09,506
12/8/18 13:09,502
12/8/18 13:09,505
12/8/18 13:09,503
12/8/18 13:09,504
12/8/18 13:09,505
12/8/18 13:09,505
12/8/18 13:09,505
12/8/18 13:09,504
12/8/18 13:09,504
12/8/18 13:09,506
12/8/18 13:09,504
12/8/18 13:09,506
12/8/18 13:09,504
12/8/18 13:09,505
12/8/18 13:09,503
12/8/18 13:09,503
12/8/18 13:09,506
12/8/18 13:09,502
12/8/18 13:09,503
12/8/18 13:09,501
12/8/18 13:09,503
12/8/18 13:09,506
12/8/18 13:09,502
12/8/18 13:09,505
12/8/18 13:09,504
12/8/18 13:09,502
12/8/18 13:09,504
12/8/18 13:09,502
12/8/18 13:09,504
12/8/18 13:09,504
12/8/18 13:09,503
12/8/18 13:09,505
12/8/18 13:09,523
12/8/18 13:09,506
12/8/18 13:09,515
12/8/18 13:09,510
12/8/18 13:09,498
12/8/18 13:09,492
12/8/18 13:09,498
12/8/18 13:09,501
12/8/18 13:09,502
12/8/18 13:09,507
12/8/18 13:09,502
12/8/18 13:09,505
12/8/18 13:09,509
12/8/18 13:09,504
12/8/18 13:09,503
12/8/18 13:09,501
12/8/18 13:09,502
12/8/18 13:09,499
12/8/18 13:09,500
12/8/18 13:09,494
12/8/18 13:09,492
12/8/18 13:09,501
12/8/18 13:09,504
12/8/18 13:09,502
12/8/18 13:09,507
12/8/18 13:09,506
12/8/18 13:09,510
12/8/18 13:09,508
12/8/18 13:09,507
12/8/18 13:09,507
12/8/18 13:09,505
12/8/18 13:09,507
12/8/18 13:09,506
12/8/18 13:09,506
12/8/18 13:09,505
12/8/18 13:09,507
12/8/18 13:09,507
12/8/18 13:09,505
12/8/18 13:09,506
12/8/18 13:09,507
12/8/18 13:09,503
12/8/18 13:09,506
12/8/18 13:09,504
12/8/18 13:09,504
12/8/18 13:09,505
12/8/18 13:09,506
12/8/18 13:09,505
12/8/18 13:09,506
12/8/18 13:09,505
12/8/18 13:09,505
12/8/18 13:09,504
12/8/18 13:09,505
12/8/18 13:09,503
12/8/18 13:09,504
12/8/18 13:09,505
12/8/18 13:09,504
12/8/18 13:09,505
12/8/18 13:09,504
12/8/18 13:09,503
12/8/18 13:09,503
12/8/18 13:09,503
12/8/18 13:09,506
12/8/18 13:09,505
12/8/18 13:09,504
12/8/18 13:09,505
12/8/18 13:09,504
12/8/18 13:09,507
12/8/18 13:09,504
12/8/18 13:09,506
12/8/18 13:09,505
12/8/18 13:09,503
12/8/18 13:09,507
12/8/18 13:09,502
12/8/18 13:09,505
12/8/18 13:09,504
12/8/18 13:09,504
12/8/18 13:09,504
12/8/18 13:09,504
12/8/18 13:09,506
12/8/18 13:09,506
12/8/18 13:09,505
12/8/18 13:09,506
12/8/18 13:09,504
12/8/18 13:09,503
12/8/18 13:09,504
12/8/18 13:09,502
12/8/18 13:09,505
12/8/18 13:09,501
12/8/18 13:09,505
12/8/18 13:09,501
12/8/18 13:09,502
12/8/18 13:09,505
12/8/18 13:09,501
12/8/18 13:09,495
12/8/18 13:09,499
12/8/18 13:09,504
12/8/18 13:09,507
12/8/18 13:09,505
12/8/18 13:09,509
12/8/18 13:09,505
12/8/18 13:09,530
12/8/18 13:09,505
12/8/18 13:09,514
12/8/18 13:09,513
12/8/18 13:09,499
12/8/18 13:09,493
12/8/18 13:09,496
12/8/18 13:09,502
12/8/18 13:09,503
12/8/18 13:09,503
12/8/18 13:09,509
12/8/18 13:09,504
12/8/18 13:09,504
12/8/18 13:09,506
12/8/18 13:09,500
12/8/18 13:09,500
12/8/18 13:09,501
12/8/18 13:09,499
12/8/18 13:09,505
12/8/18 13:09,500
12/8/18 13:09,501
12/8/18 13:09,501
12/8/18 13:09,503
12/8/18 13:09,504
12/8/18 13:09,504
12/8/18 13:09,504
12/8/18 13:09,504
12/8/18 13:09,505
12/8/18 13:09,507
12/8/18 13:09,505
12/8/18 13:09,506
12/8/18 13:09,504
12/8/18 13:09,506
12/8/18 13:09,508
12/8/18 13:09,504
12/8/18 13:09,507
12/8/18 13:09,505
12/8/18 13:09,504
12/8/18 13:09,505
12/8/18 13:09,505
12/8/18 13:09,505
12/8/18 13:09,505
12/8/18 13:09,503
12/8/18 13:09,506
12/8/18 13:18,502
12/8/18 13:18,504
12/8/18 13:18,502
12/8/18 13:18,501
12/8/18 13:18,501
12/8/18 13:18,502
12/8/18 13:18,502
12/8/18 13:18,500
12/8/18 13:18,500
12/8/18 13:18,499
12/8/18 13:18,501
12/8/18 13:18,504
12/8/18 13:18,502
12/8/18 13:18,504
12/8/18 13:18,502
12/8/18 13:18,503
12/8/18 13:18,504
12/8/18 13:18,504
12/8/18 13:18,506
12/8/18 13:18,505
12/8/18 13:18,505
12/8/18 13:18,505
12/8/18 13:18,504
12/8/18 13:18,507
12/8/18 13:18,500
12/8/18 13:18,494
12/8/18 13:18,504
12/8/18 13:18,507
12/8/18 13:18,509
12/8/18 13:18,508
12/8/18 13:18,509
12/8/18 13:18,507
12/8/18 13:18,507
12/8/18 13:18,508
12/8/18 13:18,507
12/8/18 13:18,507
12/8/18 13:18,503
12/8/18 13:18,503
12/8/18 13:18,505
12/8/18 13:18,506
12/8/18 13:18,507
12/8/18 13:18,505
12/8/18 13:18,505
12/8/18 13:18,505
12/8/18 13:18,504
12/8/18 13:18,505
12/8/18 13:18,503
12/8/18 13:18,505
12/8/18 13:18,504
12/8/18 13:18,503
12/8/18 13:18,505
12/8/18 13:18,504
12/8/18 13:18,505
12/8/18 13:18,505
12/8/18 13:18,503
12/8/18 13:18,505
12/8/18 13:18,505
12/8/18 13:18,506
12/8/18 13:18,504
12/8/18 13:18,503
12/8/18 13:18,504
12/8/18 13:18,503
12/8/18 13:18,505
12/8/18 13:18,505
12/8/18 13:18,504
12/8/18 13:18,505
12/8/18 13:18,505
12/8/18 13:18,506
12/8/18 13:18,506
12/8/18 13:18,504
12/8/18 13:18,507
12/8/18 13:18,503
12/8/18 13:18,503
12/8/18 13:18,505
12/8/18 13:18,503
12/8/18 13:18,504
12/8/18 13:18,503
12/8/18 13:18,503
12/8/18 13:18,503
12/8/18 13:18,503
12/8/18 13:18,505
12/8/18 13:18,502
12/8/18 13:18,503
12/8/18 13:18,504
12/8/18 13:18,502
12/8/18 13:18,506
12/8/18 13:18,504
12/8/18 13:18,505
12/8/18 13:18,504
12/8/18 13:18,503
12/8/18 13:18,514
12/8/18 13:18,513
12/8/18 13:18,507
12/8/18 13:18,517
12/8/18 13:18,506
12/8/18 13:18,492
12/8/18 13:18,492
12/8/18 13:18,499
12/8/18 13:18,503
12/8/18 13:18,507
12/8/18 13:18,506
12/8/18 13:18,504
12/8/18 13:18,498
12/8/18 13:18,492
12/8/18 13:18,497
12/8/18 13:18,499
12/8/18 13:18,504
12/8/18 13:18,510
12/8/18 13:18,508
12/8/18 13:18,508
12/8/18 13:18,506
12/8/18 13:18,504
12/8/18 13:18,504
12/8/18 13:18,504
12/8/18 13:18,503
12/8/18 13:18,504
12/8/18 13:18,502
12/8/18 13:18,504
12/8/18 13:18,503
12/8/18 13:18,505
12/8/18 13:18,505
12/8/18 13:18,502
12/8/18 13:18,506
12/8/18 13:18,504
12/8/18 13:18,504
12/8/18 13:18,506
12/8/18 13:18,505
12/8/18 13:18,507
12/8/18 13:18,503
12/8/18 13:18,505
12/8/18 13:18,507
12/8/18 13:18,505
12/8/18 13:18,506
12/8/18 13:18,504
12/8/18 13:18,504
12/8/18 13:18,507
12/8/18 13:18,506
12/8/18 13:18,507
12/8/18 13:18,505
12/8/18 13:18,505
12/8/18 13:18,506
12/8/18 13:18,507
12/8/18 13:18,504
12/8/18 13:18,503
12/8/18 13:18,504
12/8/18 13:18,507
12/8/18 13:18,505
12/8/18 13:18,505
12/8/18 13:18,504
12/8/18 13:18,506
12/8/18 13:18,504
12/8/18 13:18,504
12/8/18 13:18,504
12/8/18 13:18,504
12/8/18 13:18,502
12/8/18 13:18,494
12/8/18 13:18,498
12/8/18 13:18,505
12/8/18 13:18,507
12/8/18 13:18,508
12/8/18 13:18,509
12/8/18 13:18,508
12/8/18 13:18,509
12/8/18 13:18,505
12/8/18 13:18,508
12/8/18 13:18,506
12/8/18 13:18,506
12/8/18 13:18,508
12/8/18 13:18,505
12/8/18 13:18,505
12/8/18 13:18,505
12/8/18 13:18,504
12/8/18 13:18,505
12/8/18 13:18,504
12/8/18 13:18,504
12/8/18 13:18,504
12/8/18 13:18,502
12/8/18 13:18,503
12/8/18 13:18,502
12/8/18 13:18,503
12/8/18 13:18,504
12/8/18 13:18,505
12/8/18 13:18,504
12/8/18 13:18,503
12/8/18 13:18,505
12/8/18 13:18,503
12/8/18 13:18,504
12/8/18 13:18,506
12/8/18 13:18,522
12/8/18 13:18,504
12/8/18 13:18,513
12/8/18 13:18,515
12/8/18 13:18,501
12/8/18 13:18,489
12/8/18 13:18,496
12/8/18 13:18,496
12/8/18 13:18,503
12/8/18 13:18,503
12/8/18 13:18,501
12/8/18 13:18,508
12/8/18 13:18,509
12/8/18 13:18,507
12/8/18 13:18,506
12/8/18 13:18,505
12/8/18 13:18,499
12/8/18 13:18,491
12/8/18 13:18,498
12/8/18 13:18,501
12/8/18 13:18,502
12/8/18 13:18,504
12/8/18 13:18,501
12/8/18 13:18,504
12/8/18 13:18,507
12/8/18 13:18,502
12/8/18 13:18,505
12/8/18 13:18,505
12/8/18 13:18,505
12/8/18 13:18,506
12/8/18 13:18,506
12/8/18 13:18,507
12/8/18 13:18,506
12/8/18 13:18,505
12/8/18 13:18,504
12/8/18 13:18,503
12/8/18 13:18,506
12/8/18 13:18,505
12/8/18 13:18,505
12/8/18 13:18,506
12/8/18 13:18,505
12/8/18 13:18,506
12/8/18 13:18,505
12/8/18 13:18,507
12/8/18 13:18,507
12/8/18 13:18,505
12/8/18 13:18,507
12/8/18 13:18,504
12/8/18 13:18,504
12/8/18 13:18,506
12/8/18 13:18,505
12/8/18 13:18,507
12/8/18 13:18,503
12/8/18 13:18,506
12/8/18 13:18,505
12/8/18 13:18,506
12/8/18 13:18,506
12/8/18 13:18,504
12/8/18 13:18,505
12/8/18 13:18,505
12/8/18 13:18,504
12/8/18 13:18,505
12/8/18 13:18,502
12/8/18 13:18,504
12/8/18 13:18,505
12/8/18 13:18,505
12/8/18 13:18,506
12/8/18 13:18,503
12/8/18 13:18,505
12/8/18 13:18,505
12/8/18 13:18,504
12/8/18 13:18,504
12/8/18 13:18,504
12/8/18 13:18,507
12/8/18 13:18,503
12/8/18 13:18,505
12/8/18 13:18,504
12/8/18 13:18,503
12/8/18 13:18,505
12/8/18 13:18,503
12/8/18 13:18,505
12/8/18 13:18,506
12/8/18 13:18,502
12/8/18 13:18,504
12/8/18 13:18,504
12/8/18 13:18,502
12/8/18 13:18,504
12/8/18 13:18,501
12/8/18 13:18,494
12/8/18 13:18,491
12/8/18 13:18,504
12/8/18 13:18,508
12/8/18 13:18,509
12/8/18 13:18,508
12/8/18 13:18,506
12/8/18 13:18,509
12/8/18 13:18,509
12/8/18 13:18,506
12/8/18 13:18,507
12/8/18 13:18,511
12/8/18 13:18,514
12/8/18 13:18,511
12/8/18 13:18,516
12/8/18 13:18,505
12/8/18 13:18,491
12/8/18 13:18,494
12/8/18 13:18,496
12/8/18 13:18,500
12/8/18 13:18,508
12/8/18 13:18,507
12/8/18 13:18,509
12/8/18 13:18,501
12/8/18 13:18,501
12/8/18 13:18,504
12/8/18 13:18,503
12/8/18 13:18,503
12/8/18 13:18,501
12/8/18 13:18,499
12/8/18 13:18,501
12/8/18 13:18,498
12/8/18 13:18,499
12/8/18 13:18,501
12/8/18 13:18,499
12/8/18 13:18,503
12/8/18 13:18,500
12/8/18 13:18,504
12/8/18 13:18,503
12/8/18 13:18,503
12/8/18 13:18,505
12/8/18 13:18,505
12/8/18 13:18,507
12/8/18 13:18,506
12/8/18 13:18,506
12/8/18 13:18,506
12/8/18 13:18,504
12/8/18 13:18,506
12/8/18 13:18,507
12/8/18 13:18,504
12/8/18 13:18,507
12/8/18 13:18,506
12/8/18 13:18,507
12/8/18 13:18,505
12/8/18 13:18,506
12/8/18 13:18,506
12/8/18 13:18,506
12/8/18 13:18,506
12/8/18 13:18,505
12/8/18 13:18,505
12/8/18 13:18,505
12/8/18 13:18,503
12/8/18 13:18,506
12/8/18 13:18,506
12/8/18 13:18,507
12/8/18 13:18,505
12/8/18 13:18,506
12/8/18 13:18,506
12/8/18 13:18,504
12/8/18 13:18,504
12/8/18 13:18,503
12/8/18 13:18,506
12/8/18 13:18,504
12/8/18 13:18,504
12/8/18 13:18,505
12/8/18 13:18,507
12/8/18 13:18,506
12/8/18 13:18,504
12/8/18 13:18,504
12/8/18 13:18,505
12/8/18 13:18,505
12/8/18 13:18,503
12/8/18 13:18,506
12/8/18 13:18,503
12/8/18 13:18,506
12/8/18 13:18,502
12/8/18 13:18,492
12/8/18 13:18,502
12/8/18 13:18,506
12/8/18 13:18,509
12/8/18 13:18,507
12/8/18 13:18,506
12/8/18 13:18,505
12/8/18 13:18,504
12/8/18 13:18,507
12/8/18 13:18,506
12/8/18 13:18,507
12/8/18 13:18,506
12/8/18 13:18,504
12/8/18 13:18,504
12/8/18 13:18,505
12/8/18 13:18,504
12/8/18 13:18,505
12/8/18 13:18,503
12/8/18 13:18,504
12/8/18 13:18,503
12/8/18 13:18,502
12/8/18 13:18,505
12/8/18 13:18,505
12/8/18 13:18,504
12/8/18 13:18,505
12/8/18 13:18,521
12/8/18 13:18,506
12/8/18 13:18,515
12/8/18 13:18,510
12/8/18 13:18,492
12/8/18 13:18,491
12/8/18 13:18,496
12/8/18 13:18,505
12/8/18 13:18,507
12/8/18 13:18,506
12/8/18 13:18,504
12/8/18 13:18,500
12/8/18 13:18,499
12/8/18 13:18,506
12/8/18 13:18,501
12/8/18 13:18,498
12/8/18 13:18,500
12/8/18 13:18,502
12/8/18 13:18,502
12/8/18 13:18,502
12/8/18 13:18,502
12/8/18 13:18,502
12/8/18 13:18,501
12/8/18 13:18,504
12/8/18 13:18,505
12/8/18 13:18,505
12/8/18 13:18,505
12/8/18 13:18,505
12/8/18 13:18,507
12/8/18 13:18,503
12/8/18 13:18,505
12/8/18 13:18,507
12/8/18 13:18,506
12/8/18 13:18,508
12/8/18 13:18,505
12/8/18 13:18,506
12/8/18 13:18,507
12/8/18 13:18,504
12/8/18 13:18,507
12/8/18 13:18,503
12/8/18 13:18,505
12/8/18 13:18,506
12/8/18 13:18,504
12/8/18 13:18,506
12/8/18 13:18,505
12/8/18 13:18,505
12/8/18 13:18,505
12/8/18 13:18,503
12/8/18 13:18,504
12/8/18 13:18,503
12/8/18 13:18,506
12/8/18 13:18,507
12/8/18 13:18,505
12/8/18 13:18,505
12/8/18 13:18,502
12/8/18 13:18,506
12/8/18 13:18,506
12/8/18 13:18,504
12/8/18 13:18,503
12/8/18 13:18,504
12/8/18 13:18,506
12/8/18 13:18,503
12/8/18 13:18,504
12/8/18 13:18,503
12/8/18 13:18,503
12/8/18 13:18,504
12/8/18 13:18,505
12/8/18 13:18,506
12/8/18 13:18,506
12/8/18 13:18,504
12/8/18 13:18,504
12/8/18 13:18,502
12/8/18 13:18,505
12/8/18 13:18,505
12/8/18 13:18,503
12/8/18 13:18,505
12/8/18 13:18,505
12/8/18 13:18,506
12/8/18 13:18,505
12/8/18 13:18,503
12/8/18 13:18,505
12/8/18 13:18,503
12/8/18 13:18,503
12/8/18 13:18,503
12/8/18 13:18,503
12/8/18 13:18,504
12/8/18 13:18,503
12/8/18 13:18,503
12/8/18 13:18,499
12/8/18 13:18,493
12/8/18 13:18,504
12/8/18 13:18,504
12/8/18 13:18,508
12/8/18 13:18,507
12/8/18 13:18,505
12/8/18 13:18,508
12/8/18 13:18,506
12/8/18 13:18,505
12/8/18 13:18,526
12/8/18 13:18,503
12/8/18 13:18,517
12/8/18 13:18,513
12/8/18 13:18,498
12/8/18 13:18,490
12/8/18 13:18,494
12/8/18 13:18,500
12/8/18 13:18,501
12/8/18 13:18,503
12/8/18 13:18,506
12/8/18 13:18,505
12/8/18 13:18,509
12/8/18 13:18,506
12/8/18 13:18,507
12/8/18 13:18,503
12/8/18 13:18,500
12/8/18 13:18,500
12/8/18 13:18,495
12/8/18 13:18,499
12/8/18 13:18,498
12/8/18 13:18,500
12/8/18 13:18,502
12/8/18 13:18,502
12/8/18 13:18,505
12/8/18 13:18,503
12/8/18 13:18,504
12/8/18 13:18,505
12/8/18 13:18,504
12/8/18 13:18,505
12/8/18 13:18,505
12/8/18 13:18,505
12/8/18 13:18,507
12/8/18 13:18,504
12/8/18 13:18,509
12/8/18 13:18,505
12/8/18 13:18,505
12/8/18 13:18,506
12/8/18 13:18,504
12/8/18 13:18,507
12/8/18 13:18,505
12/8/18 13:18,505
12/8/18 13:18,506
12/8/18 13:18,505
12/8/18 13:18,506
12/8/18 13:18,505
12/8/18 13:18,505
12/8/18 13:18,506
12/8/18 13:18,504
12/8/18 13:18,506
12/8/18 13:18,506
12/8/18 13:18,505
12/8/18 13:18,505
12/8/18 13:18,503
12/8/18 13:18,505
12/8/18 13:18,503
12/8/18 13:18,506
12/8/18 13:18,506
12/8/18 13:18,503
12/8/18 13:18,505
12/8/18 13:18,504
12/8/18 13:18,505
12/8/18 13:18,506
12/8/18 13:18,503
12/8/18 13:18,506
12/8/18 13:18,504
12/8/18 13:18,506
12/8/18 13:18,505
12/8/18 13:18,502
12/8/18 13:18,504
12/8/18 13:18,503
12/8/18 13:18,505
12/8/18 13:18,504
12/8/18 13:18,502
12/8/18 13:18,505
12/8/18 13:18,503
12/8/18 13:18,505
12/8/18 13:18,503
12/8/18 13:18,504
12/8/18 13:18,507
12/8/18 13:18,506
12/8/18 13:18,505
12/8/18 13:18,504
12/8/18 13:18,505
12/8/18 13:18,504
12/8/18 13:18,503
12/8/18 13:18,506
12/8/18 13:18,505
12/8/18 13:18,502
12/8/18 13:18,505
12/8/18 13:18,502
12/8/18 13:18,504
12/8/18 13:18,502
12/8/18 13:18,504
12/8/18 13:18,503
12/8/18 13:18,492
12/8/18 13:18,502
12/8/18 13:18,504
12/8/18 13:18,503
12/8/18 13:18,508
12/8/18 13:18,508
12/8/18 13:18,519
12/8/18 13:18,514
12/8/18 13:18,513
12/8/18 13:18,521
12/8/18 13:18,506
12/8/18 13:18,493
12/8/18 13:18,492
12/8/18 13:18,496
12/8/18 13:18,498
12/8/18 13:18,504
12/8/18 13:18,505
12/8/18 13:18,500
12/8/18 13:18,502
12/8/18 13:18,504
12/8/18 13:27,502
12/8/18 13:27,502
12/8/18 13:27,503
12/8/18 13:27,504
12/8/18 13:27,502
12/8/18 13:27,505
12/8/18 13:27,501
12/8/18 13:27,504
12/8/18 13:27,502
12/8/18 13:27,504
12/8/18 13:27,504
12/8/18 13:27,502
12/8/18 13:27,504
12/8/18 13:27,502
12/8/18 13:27,505
12/8/18 13:27,504
12/8/18 13:27,503
12/8/18 13:27,505
12/8/18 13:27,506
12/8/18 13:27,505
12/8/18 13:27,504
12/8/18 13:27,504
12/8/18 13:27,505
12/8/18 13:27,504
12/8/18 13:27,503
12/8/18 13:27,504
12/8/18 13:27,502
12/8/18 13:27,505
12/8/18 13:27,503
12/8/18 13:27,504
12/8/18 13:27,502
12/8/18 13:27,501
12/8/18 13:27,505
12/8/18 13:27,502
12/8/18 13:27,492
12/8/18 13:27,502
12/8/18 13:27,506
12/8/18 13:27,508
12/8/18 13:27,509
12/8/18 13:27,507
12/8/18 13:27,507
12/8/18 13:27,508
12/8/18 13:27,524
12/8/18 13:27,506
12/8/18 13:27,513
12/8/18 13:27,520
12/8/18 13:27,502
12/8/18 13:27,495
12/8/18 13:27,494
12/8/18 13:27,500
12/8/18 13:27,502
12/8/18 13:27,505
12/8/18 13:27,500
12/8/18 13:27,502
12/8/18 13:27,507
12/8/18 13:27,504
12/8/18 13:27,504
12/8/18 13:27,505
12/8/18 13:27,502
12/8/18 13:27,501
12/8/18 13:27,502
12/8/18 13:27,500
12/8/18 13:27,502
12/8/18 13:27,499
12/8/18 13:27,501
12/8/18 13:27,502
12/8/18 13:27,503
12/8/18 13:27,503
12/8/18 13:27,501
12/8/18 13:27,506
12/8/18 13:27,504
12/8/18 13:27,505
12/8/18 13:27,499
12/8/18 13:27,490
12/8/18 13:27,505
12/8/18 13:27,509
12/8/18 13:27,510
12/8/18 13:27,511
12/8/18 13:27,510
12/8/18 13:27,509
12/8/18 13:27,509
12/8/18 13:27,508
12/8/18 13:27,509
12/8/18 13:27,506
12/8/18 13:27,506
12/8/18 13:27,505
12/8/18 13:27,506
12/8/18 13:27,505
12/8/18 13:27,504
12/8/18 13:27,505
12/8/18 13:27,504
12/8/18 13:27,505
12/8/18 13:27,506
12/8/18 13:27,503
12/8/18 13:27,506
12/8/18 13:27,504
12/8/18 13:27,505
12/8/18 13:27,504
12/8/18 13:27,503
12/8/18 13:27,506
12/8/18 13:27,505
12/8/18 13:27,503
12/8/18 13:27,505
12/8/18 13:27,504
12/8/18 13:27,506
12/8/18 13:27,503
12/8/18 13:27,506
12/8/18 13:27,504
12/8/18 13:27,506
12/8/18 13:27,506
12/8/18 13:27,503
12/8/18 13:27,504
12/8/18 13:27,505
12/8/18 13:27,503
12/8/18 13:27,505
12/8/18 13:27,505
12/8/18 13:27,506
12/8/18 13:27,505
12/8/18 13:27,505
12/8/18 13:27,506
12/8/18 13:27,504
12/8/18 13:27,504
12/8/18 13:27,505
12/8/18 13:27,504
12/8/18 13:27,505
12/8/18 13:27,503
12/8/18 13:27,502
12/8/18 13:27,502
12/8/18 13:27,498
12/8/18 13:27,489
12/8/18 13:27,499
12/8/18 13:27,507
12/8/18 13:27,507
12/8/18 13:27,509
12/8/18 13:27,509
12/8/18 13:27,506
12/8/18 13:27,508
12/8/18 13:27,507
12/8/18 13:27,507
12/8/18 13:27,505
12/8/18 13:27,503
12/8/18 13:27,504
12/8/18 13:27,504
12/8/18 13:27,506
12/8/18 13:27,525
12/8/18 13:27,504
12/8/18 13:27,517
12/8/18 13:27,508
12/8/18 13:27,495
12/8/18 13:27,492
12/8/18 13:27,498
12/8/18 13:27,500
12/8/18 13:27,502
12/8/18 13:27,509
12/8/18 13:27,509
12/8/18 13:27,504
12/8/18 13:27,504
12/8/18 13:27,502
12/8/18 13:27,502
12/8/18 13:27,503
12/8/18 13:27,502
12/8/18 13:27,501
12/8/18 13:27,498
12/8/18 13:27,499
12/8/18 13:27,499
12/8/18 13:27,500
12/8/18 13:27,500
12/8/18 13:27,501
12/8/18 13:27,503
12/8/18 13:27,503
12/8/18 13:27,504
12/8/18 13:27,505
12/8/18 13:27,504
12/8/18 13:27,505
12/8/18 13:27,506
12/8/18 13:27,506
12/8/18 13:27,505
12/8/18 13:27,507
12/8/18 13:27,506
12/8/18 13:27,506
12/8/18 13:27,505
12/8/18 13:27,506
12/8/18 13:27,505
12/8/18 13:27,506
12/8/18 13:27,505
12/8/18 13:27,505
12/8/18 13:27,507
12/8/18 13:27,504
12/8/18 13:27,506
12/8/18 13:27,506
12/8/18 13:27,505
12/8/18 13:27,505
12/8/18 13:27,504
12/8/18 13:27,506
12/8/18 13:27,505
12/8/18 13:27,502
12/8/18 13:27,491
12/8/18 13:27,503
12/8/18 13:27,508
12/8/18 13:27,509
12/8/18 13:27,509
12/8/18 13:27,508
12/8/18 13:27,507
12/8/18 13:27,509
12/8/18 13:27,505
12/8/18 13:27,502
12/8/18 13:27,504
12/8/18 13:27,505
12/8/18 13:27,507
12/8/18 13:27,505
12/8/18 13:27,507
12/8/18 13:27,506
12/8/18 13:27,504
12/8/18 13:27,506
12/8/18 13:27,504
12/8/18 13:27,503
12/8/18 13:27,503
12/8/18 13:27,504
12/8/18 13:27,507
12/8/18 13:27,503
12/8/18 13:27,504
12/8/18 13:27,506
12/8/18 13:27,503
12/8/18 13:27,504
12/8/18 13:27,503
12/8/18 13:27,504
12/8/18 13:27,505
12/8/18 13:27,504
12/8/18 13:27,503
12/8/18 13:27,503
12/8/18 13:27,504
12/8/18 13:27,503
12/8/18 13:27,504
12/8/18 13:27,503
12/8/18 13:27,503
12/8/18 13:27,504
12/8/18 13:27,504
12/8/18 13:27,503
12/8/18 13:27,504
12/8/18 13:27,502
12/8/18 13:27,506
12/8/18 13:27,505
12/8/18 13:27,504
12/8/18 13:27,505
12/8/18 13:27,503
12/8/18 13:27,528
12/8/18 13:27,504
12/8/18 13:27,514
12/8/18 13:27,514
12/8/18 13:27,496
12/8/18 13:27,490
12/8/18 13:27,497
12/8/18 13:27,502
12/8/18 13:27,506
12/8/18 13:27,503
12/8/18 13:27,506
12/8/18 13:27,504
12/8/18 13:27,495
12/8/18 13:27,501
12/8/18 13:27,503
12/8/18 13:27,504
12/8/18 13:27,510
12/8/18 13:27,506
12/8/18 13:27,496
12/8/18 13:27,498
12/8/18 13:27,503
12/8/18 13:27,504
12/8/18 13:27,503
12/8/18 13:27,497
12/8/18 13:27,486
12/8/18 13:27,502
12/8/18 13:27,504
12/8/18 13:27,508
12/8/18 13:27,511
12/8/18 13:27,509
12/8/18 13:27,509
12/8/18 13:27,507
12/8/18 13:27,507
12/8/18 13:27,507
12/8/18 13:27,506
12/8/18 13:27,507
12/8/18 13:27,507
12/8/18 13:27,505
12/8/18 13:27,507
12/8/18 13:27,503
12/8/18 13:27,506
12/8/18 13:27,505
12/8/18 13:27,508
12/8/18 13:27,506
12/8/18 13:27,503
12/8/18 13:27,505
12/8/18 13:27,504
12/8/18 13:27,505
12/8/18 13:27,505
12/8/18 13:27,505
12/8/18 13:27,505
12/8/18 13:27,503
12/8/18 13:27,506
12/8/18 13:27,506
12/8/18 13:27,504
12/8/18 13:27,507
12/8/18 13:27,503
12/8/18 13:27,503
12/8/18 13:27,504
12/8/18 13:27,503
12/8/18 13:27,504
12/8/18 13:27,505
12/8/18 13:27,504
12/8/18 13:27,505
12/8/18 13:27,504
12/8/18 13:27,507
12/8/18 13:27,503
12/8/18 13:27,504
12/8/18 13:27,506
12/8/18 13:27,504
12/8/18 13:27,506
12/8/18 13:27,503
12/8/18 13:27,503
12/8/18 13:27,505
12/8/18 13:27,505
12/8/18 13:27,505
12/8/18 13:27,504
12/8/18 13:27,505
12/8/18 13:27,503
12/8/18 13:27,503
12/8/18 13:27,504
12/8/18 13:27,505
12/8/18 13:27,504
12/8/18 13:27,504
12/8/18 13:27,502
12/8/18 13:27,503
12/8/18 13:27,502
12/8/18 13:27,504
12/8/18 13:27,501
12/8/18 13:27,502
12/8/18 13:27,505
12/8/18 13:27,503
12/8/18 13:27,500
12/8/18 13:27,492
12/8/18 13:27,505
12/8/18 13:27,509
12/8/18 13:27,508
12/8/18 13:27,508
12/8/18 13:27,507
12/8/18 13:27,507
12/8/18 13:27,533
12/8/18 13:27,508
12/8/18 13:27,518
12/8/18 13:27,509
12/8/18 13:27,495
12/8/18 13:27,490
12/8/18 13:27,497
12/8/18 13:27,499
12/8/18 13:27,504
12/8/18 13:27,502
12/8/18 13:27,503
12/8/18 13:27,504
12/8/18 13:27,509
12/8/18 13:27,503
12/8/18 13:27,503
12/8/18 13:27,502
12/8/18 13:27,500
12/8/18 13:27,501
12/8/18 13:27,498
12/8/18 13:27,501
12/8/18 13:27,500
12/8/18 13:27,500
12/8/18 13:27,503
12/8/18 13:27,502
12/8/18 13:27,503
12/8/18 13:27,503
12/8/18 13:27,502
12/8/18 13:27,505
12/8/18 13:27,504
12/8/18 13:27,505
12/8/18 13:27,506
12/8/18 13:27,506
12/8/18 13:27,506
12/8/18 13:27,505
12/8/18 13:27,506
12/8/18 13:27,506
12/8/18 13:27,505
12/8/18 13:27,507
12/8/18 13:27,505
12/8/18 13:27,507
12/8/18 13:27,505
12/8/18 13:27,506
12/8/18 13:27,506
12/8/18 13:27,505
12/8/18 13:27,506
12/8/18 13:27,505
12/8/18 13:27,503
12/8/18 13:27,506
12/8/18 13:27,505
12/8/18 13:27,506
12/8/18 13:27,506
12/8/18 13:27,505
12/8/18 13:27,505
12/8/18 13:27,503
12/8/18 13:27,505
12/8/18 13:27,504
12/8/18 13:27,505
12/8/18 13:27,505
12/8/18 13:27,504
12/8/18 13:27,504
12/8/18 13:27,503
12/8/18 13:27,505
12/8/18 13:27,506
12/8/18 13:27,505
12/8/18 13:27,506
12/8/18 13:27,504
12/8/18 13:27,505
12/8/18 13:27,505
12/8/18 13:27,503
12/8/18 13:27,503
12/8/18 13:27,503
12/8/18 13:27,504
12/8/18 13:27,503
12/8/18 13:27,504
12/8/18 13:27,506
12/8/18 13:27,506
12/8/18 13:27,505
12/8/18 13:27,504
12/8/18 13:27,504
12/8/18 13:27,505
12/8/18 13:27,503
12/8/18 13:27,504
12/8/18 13:27,504
12/8/18 13:27,502
12/8/18 13:27,505
12/8/18 13:27,503
12/8/18 13:27,505
12/8/18 13:27,504
12/8/18 13:27,502
12/8/18 13:27,507
12/8/18 13:27,502
12/8/18 13:27,503
12/8/18 13:27,504
12/8/18 13:27,503
12/8/18 13:27,506
12/8/18 13:27,503
12/8/18 13:27,504
12/8/18 13:27,505
12/8/18 13:27,504
12/8/18 13:27,505
12/8/18 13:27,524
12/8/18 13:27,505
12/8/18 13:27,517
12/8/18 13:27,513
12/8/18 13:27,498
12/8/18 13:27,493
12/8/18 13:27,497
12/8/18 13:27,501
12/8/18 13:27,506
12/8/18 13:27,507
12/8/18 13:27,505
12/8/18 13:27,503
12/8/18 13:27,499
12/8/18 13:27,500
12/8/18 13:27,502
12/8/18 13:27,502
12/8/18 13:27,504
12/8/18 13:27,504
12/8/18 13:27,503
12/8/18 13:27,502
12/8/18 13:27,502
12/8/18 13:27,502
12/8/18 13:27,502
12/8/18 13:27,501
12/8/18 13:27,503
12/8/18 13:27,502
12/8/18 13:27,504
12/8/18 13:27,503
12/8/18 13:27,504
12/8/18 13:27,506
12/8/18 13:27,504
12/8/18 13:27,507
12/8/18 13:27,506
12/8/18 13:27,506
12/8/18 13:27,505
12/8/18 13:27,505
12/8/18 13:27,505
12/8/18 13:27,504
12/8/18 13:27,506
12/8/18 13:27,506
12/8/18 13:27,504
12/8/18 13:27,493
12/8/18 13:27,502
12/8/18 13:27,506
12/8/18 13:27,508
12/8/18 13:27,507
12/8/18 13:27,508
12/8/18 13:27,510
12/8/18 13:27,509
12/8/18 13:27,510
12/8/18 13:27,506
12/8/18 13:27,507
12/8/18 13:27,505
12/8/18 13:27,507
12/8/18 13:27,506
12/8/18 13:27,503
12/8/18 13:27,505
12/8/18 13:27,503
12/8/18 13:27,505
12/8/18 13:27,505
12/8/18 13:27,504
12/8/18 13:27,505
12/8/18 13:27,503
12/8/18 13:27,504
12/8/18 13:27,504
12/8/18 13:27,505
12/8/18 13:27,505
12/8/18 13:27,505
12/8/18 13:27,507
12/8/18 13:27,504
12/8/18 13:27,503
12/8/18 13:27,506
12/8/18 13:27,504
12/8/18 13:27,506
12/8/18 13:27,503
12/8/18 13:27,503
12/8/18 13:27,507
12/8/18 13:27,503
12/8/18 13:27,504
12/8/18 13:27,505
12/8/18 13:27,504
12/8/18 13:27,503
12/8/18 13:27,501
12/8/18 13:27,504
12/8/18 13:27,504
12/8/18 13:27,504
12/8/18 13:27,504
12/8/18 13:27,503
12/8/18 13:27,504
12/8/18 13:27,503
12/8/18 13:27,503
12/8/18 13:27,502
12/8/18 13:27,504
12/8/18 13:27,505
12/8/18 13:27,504
12/8/18 13:27,504
12/8/18 13:27,494
12/8/18 13:27,497
12/8/18 13:27,508
12/8/18 13:27,508
12/8/18 13:27,521
12/8/18 13:27,515
12/8/18 13:27,515
12/8/18 13:27,521
12/8/18 13:27,504
12/8/18 13:27,493
12/8/18 13:27,493
12/8/18 13:27,497
12/8/18 13:27,497
12/8/18 13:27,503
12/8/18 13:27,506
12/8/18 13:27,509
12/8/18 13:27,503
12/8/18 13:27,504
12/8/18 13:27,504
12/8/18 13:27,508
12/8/18 13:27,503
12/8/18 13:27,503
12/8/18 13:27,504
12/8/18 13:27,500
12/8/18 13:27,501
12/8/18 13:27,500
12/8/18 13:27,498
12/8/18 13:27,500
12/8/18 13:27,501
12/8/18 13:27,502
12/8/18 13:27,503
12/8/18 13:27,503
12/8/18 13:27,505
12/8/18 13:27,503
12/8/18 13:27,504
12/8/18 13:27,505
12/8/18 13:27,505
12/8/18 13:27,506
12/8/18 13:27,505
12/8/18 13:27,506
12/8/18 13:27,505
12/8/18 13:27,504
12/8/18 13:27,507
12/8/18 13:27,505
12/8/18 13:27,506
12/8/18 13:27,505
12/8/18 13:27,505
12/8/18 13:27,506
12/8/18 13:27,504
12/8/18 13:27,507
12/8/18 13:27,506
12/8/18 13:27,506
12/8/18 13:27,508
12/8/18 13:27,505
12/8/18 13:27,506
12/8/18 13:27,504
12/8/18 13:27,505
12/8/18 13:27,505
12/8/18 13:27,504
12/8/18 13:36,500
12/8/18 13:36,507
12/8/18 13:36,501
12/8/18 13:36,520
12/8/18 13:36,492
12/8/18 13:36,515
12/8/18 13:36,502
12/8/18 13:36,499
12/8/18 13:36,517
12/8/18 13:36,491
12/8/18 13:36,516
12/8/18 13:36,498
12/8/18 13:36,500
12/8/18 13:36,515
12/8/18 13:36,491
12/8/18 13:36,517
12/8/18 13:36,499
12/8/18 13:36,501
12/8/18 13:36,516
12/8/18 13:36,491
12/8/18 13:36,517
12/8/18 13:36,499
12/8/18 13:36,502
12/8/18 13:36,513
12/8/18 13:36,490
12/8/18 13:36,519
12/8/18 13:36,497
12/8/18 13:36,505
12/8/18 13:36,514
12/8/18 13:36,492
12/8/18 13:36,519
12/8/18 13:36,495
12/8/18 13:36,504
12/8/18 13:36,512
12/8/18 13:36,494
12/8/18 13:36,518
12/8/18 13:36,494
12/8/18 13:36,507
12/8/18 13:36,513
12/8/18 13:36,491
12/8/18 13:36,520
12/8/18 13:36,493
12/8/18 13:36,508
12/8/18 13:36,510
12/8/18 13:36,493
12/8/18 13:36,520
12/8/18 13:36,493
12/8/18 13:36,510
12/8/18 13:36,510
12/8/18 13:36,493
12/8/18 13:36,519
12/8/18 13:36,492
12/8/18 13:36,510
12/8/18 13:36,507
12/8/18 13:36,495
12/8/18 13:36,519
12/8/18 13:36,490
12/8/18 13:36,510
12/8/18 13:36,505
12/8/18 13:36,495
12/8/18 13:36,516
12/8/18 13:36,487
12/8/18 13:36,509
12/8/18 13:36,504
12/8/18 13:36,499
12/8/18 13:36,520
12/8/18 13:36,492
12/8/18 13:36,515
12/8/18 13:36,506
12/8/18 13:36,498
12/8/18 13:36,517
12/8/18 13:36,491
12/8/18 13:36,536
12/8/18 13:36,502
12/8/18 13:36,510
12/8/18 13:36,523
12/8/18 13:36,483
12/8/18 13:36,503
12/8/18 13:36,495
12/8/18 13:36,499
12/8/18 13:36,517
12/8/18 13:36,487
12/8/18 13:36,516
12/8/18 13:36,494
12/8/18 13:36,497
12/8/18 13:36,511
12/8/18 13:36,490
12/8/18 13:36,519
12/8/18 13:36,495
12/8/18 13:36,491
12/8/18 13:36,498
12/8/18 13:36,487
12/8/18 13:36,518
12/8/18 13:36,498
12/8/18 13:36,504
12/8/18 13:36,511
12/8/18 13:36,495
12/8/18 13:36,523
12/8/18 13:36,500
12/8/18 13:36,509
12/8/18 13:36,514
12/8/18 13:36,495
12/8/18 13:36,521
12/8/18 13:36,494
12/8/18 13:36,509
12/8/18 13:36,510
12/8/18 13:36,495
12/8/18 13:36,520
12/8/18 13:36,495
12/8/18 13:36,509
12/8/18 13:36,510
12/8/18 13:36,495
12/8/18 13:36,520
12/8/18 13:36,494
12/8/18 13:36,509
12/8/18 13:36,507
12/8/18 13:36,496
12/8/18 13:36,520
12/8/18 13:36,492
12/8/18 13:36,513
12/8/18 13:36,507
12/8/18 13:36,495
12/8/18 13:36,518
12/8/18 13:36,492
12/8/18 13:36,514
12/8/18 13:36,506
12/8/18 13:36,495
12/8/18 13:36,518
12/8/18 13:36,490
12/8/18 13:36,513
12/8/18 13:36,503
12/8/18 13:36,497
12/8/18 13:36,516
12/8/18 13:36,490
12/8/18 13:36,516
12/8/18 13:36,501
12/8/18 13:36,500
12/8/18 13:36,519
12/8/18 13:36,490
12/8/18 13:36,516
12/8/18 13:36,501
12/8/18 13:36,500
12/8/18 13:36,515
12/8/18 13:36,489
12/8/18 13:36,516
12/8/18 13:36,497
12/8/18 13:36,501
12/8/18 13:36,516
12/8/18 13:36,491
12/8/18 13:36,518
12/8/18 13:36,499
12/8/18 13:36,503
12/8/18 13:36,514
12/8/18 13:36,491
12/8/18 13:36,518
12/8/18 13:36,497
12/8/18 13:36,501
12/8/18 13:36,513
12/8/18 13:36,492
12/8/18 13:36,517
12/8/18 13:36,494
12/8/18 13:36,504
12/8/18 13:36,510
12/8/18 13:36,492
12/8/18 13:36,518
12/8/18 13:36,494
12/8/18 13:36,506
12/8/18 13:36,510
12/8/18 13:36,493
12/8/18 13:36,519
12/8/18 13:36,492
12/8/18 13:36,512
12/8/18 13:36,522
12/8/18 13:36,496
12/8/18 13:36,529
12/8/18 13:36,496
12/8/18 13:36,500
12/8/18 13:36,498
12/8/18 13:36,487
12/8/18 13:36,517
12/8/18 13:36,490
12/8/18 13:36,511
12/8/18 13:36,507
12/8/18 13:36,483
12/8/18 13:36,515
12/8/18 13:36,485
12/8/18 13:36,511
12/8/18 13:36,507
12/8/18 13:36,500
12/8/18 13:36,521
12/8/18 13:36,492
12/8/18 13:36,513
12/8/18 13:36,502
12/8/18 13:36,496
12/8/18 13:36,517
12/8/18 13:36,488
12/8/18 13:36,514
12/8/18 13:36,502
12/8/18 13:36,498
12/8/18 13:36,517
12/8/18 13:36,489
12/8/18 13:36,516
12/8/18 13:36,501
12/8/18 13:36,499
12/8/18 13:36,516
12/8/18 13:36,491
12/8/18 13:36,517
12/8/18 13:36,501
12/8/18 13:36,501
12/8/18 13:36,517
12/8/18 13:36,491
12/8/18 13:36,518
12/8/18 13:36,500
12/8/18 13:36,502
12/8/18 13:36,515
12/8/18 13:36,493
12/8/18 13:36,519
12/8/18 13:36,499
12/8/18 13:36,502
12/8/18 13:36,513
12/8/18 13:36,492
12/8/18 13:36,518
12/8/18 13:36,495
12/8/18 13:36,506
12/8/18 13:36,512
12/8/18 13:36,492
12/8/18 13:36,521
12/8/18 13:36,495
12/8/18 13:36,505
12/8/18 13:36,513
12/8/18 13:36,494
12/8/18 13:36,519
12/8/18 13:36,493
12/8/18 13:36,507
12/8/18 13:36,510
12/8/18 13:36,493
12/8/18 13:36,519
12/8/18 13:36,494
12/8/18 13:36,508
12/8/18 13:36,509
12/8/18 13:36,495
12/8/18 13:36,521
12/8/18 13:36,493
12/8/18 13:36,510
12/8/18 13:36,507
12/8/18 13:36,493
12/8/18 13:36,519
12/8/18 13:36,491
12/8/18 13:36,513
12/8/18 13:36,506
12/8/18 13:36,495
12/8/18 13:36,516
12/8/18 13:36,486
12/8/18 13:36,512
12/8/18 13:36,507
12/8/18 13:36,497
12/8/18 13:36,517
12/8/18 13:36,478
12/8/18 13:36,508
12/8/18 13:36,505
12/8/18 13:36,502
12/8/18 13:36,520
12/8/18 13:36,494
12/8/18 13:36,519
12/8/18 13:36,505
12/8/18 13:36,499
12/8/18 13:36,517
12/8/18 13:36,490
12/8/18 13:36,516
12/8/18 13:36,501
12/8/18 13:36,500
12/8/18 13:36,515
12/8/18 13:36,508
12/8/18 13:36,517
12/8/18 13:36,510
12/8/18 13:36,508
12/8/18 13:36,507
12/8/18 13:36,478
12/8/18 13:36,510
12/8/18 13:36,492
12/8/18 13:36,500
12/8/18 13:36,513
12/8/18 13:36,495
12/8/18 13:36,523
12/8/18 13:36,495
12/8/18 13:36,502
12/8/18 13:36,511
12/8/18 13:36,490
12/8/18 13:36,514
12/8/18 13:36,490
12/8/18 13:36,501
12/8/18 13:36,506
12/8/18 13:36,488
12/8/18 13:36,514
12/8/18 13:36,491
12/8/18 13:36,506
12/8/18 13:36,508
12/8/18 13:36,493
12/8/18 13:36,522
12/8/18 13:36,494
12/8/18 13:36,509
12/8/18 13:36,511
12/8/18 13:36,494
12/8/18 13:36,519
12/8/18 13:36,492
12/8/18 13:36,511
12/8/18 13:36,510
12/8/18 13:36,495
12/8/18 13:36,519
12/8/18 13:36,493
12/8/18 13:36,512
12/8/18 13:36,510
12/8/18 13:36,496
12/8/18 13:36,520
12/8/18 13:36,492
12/8/18 13:36,515
12/8/18 13:36,507
12/8/18 13:36,497
12/8/18 13:36,519
12/8/18 13:36,491
12/8/18 13:36,510
12/8/18 13:36,485
12/8/18 13:36,493
12/8/18 13:36,522
12/8/18 13:36,498
12/8/18 13:36,521
12/8/18 13:36,508
12/8/18 13:36,502
12/8/18 13:36,521
12/8/18 13:36,494
12/8/18 13:36,520
12/8/18 13:36,501
12/8/18 13:36,500
12/8/18 13:36,517
12/8/18 13:36,491
12/8/18 13:36,518
12/8/18 13:36,500
12/8/18 13:36,499
12/8/18 13:36,514
12/8/18 13:36,491
12/8/18 13:36,517
12/8/18 13:36,499
12/8/18 13:36,501
12/8/18 13:36,515
12/8/18 13:36,490
12/8/18 13:36,518
12/8/18 13:36,496
12/8/18 13:36,503
12/8/18 13:36,514
12/8/18 13:36,490
12/8/18 13:36,518
12/8/18 13:36,494
12/8/18 13:36,502
12/8/18 13:36,513
12/8/18 13:36,490
12/8/18 13:36,518
12/8/18 13:36,494
12/8/18 13:36,505
12/8/18 13:36,510
12/8/18 13:36,492
12/8/18 13:36,517
12/8/18 13:36,493
12/8/18 13:36,507
12/8/18 13:36,509
12/8/18 13:36,493
12/8/18 13:36,502
12/8/18 13:36,486
12/8/18 13:36,504
12/8/18 13:36,513
12/8/18 13:36,500
12/8/18 13:36,525
12/8/18 13:36,498
12/8/18 13:36,524
12/8/18 13:36,517
12/8/18 13:36,503
12/8/18 13:36,533
12/8/18 13:36,493
12/8/18 13:36,500
12/8/18 13:36,495
12/8/18 13:36,490
12/8/18 13:36,515
12/8/18 13:36,493
12/8/18 13:36,514
12/8/18 13:36,500
12/8/18 13:36,492
12/8/18 13:36,517
12/8/18 13:36,490
12/8/18 13:36,514
12/8/18 13:36,502
12/8/18 13:36,495
12/8/18 13:36,515
12/8/18 13:36,486
12/8/18 13:36,509
12/8/18 13:36,499
12/8/18 13:36,495
12/8/18 13:36,513
12/8/18 13:36,489
12/8/18 13:36,514
12/8/18 13:36,499
12/8/18 13:36,499
12/8/18 13:36,514
12/8/18 13:36,490
12/8/18 13:36,518
12/8/18 13:36,502
12/8/18 13:36,502
12/8/18 13:36,514
12/8/18 13:36,491
12/8/18 13:36,518
12/8/18 13:36,500
12/8/18 13:36,502
12/8/18 13:36,516
12/8/18 13:36,494
12/8/18 13:36,520
12/8/18 13:36,499
12/8/18 13:36,506
12/8/18 13:36,514
12/8/18 13:36,492
12/8/18 13:36,520
12/8/18 13:36,484
12/8/18 13:36,494
12/8/18 13:36,510
12/8/18 13:36,496
12/8/18 13:36,526
12/8/18 13:36,502
12/8/18 13:36,513
12/8/18 13:36,517
12/8/18 13:36,496
12/8/18 13:36,522
12/8/18 13:36,496
12/8/18 13:36,508
12/8/18 13:36,513
12/8/18 13:36,494
12/8/18 13:36,518
12/8/18 13:36,492
12/8/18 13:36,508
12/8/18 13:36,508
12/8/18 13:36,493
12/8/18 13:36,521
12/8/18 13:36,492
12/8/18 13:36,511
12/8/18 13:36,508
12/8/18 13:36,493
12/8/18 13:36,517
12/8/18 13:36,489
12/8/18 13:36,513
12/8/18 13:36,506
12/8/18 13:36,495
12/8/18 13:36,519
12/8/18 13:36,491
12/8/18 13:36,512
12/8/18 13:36,504
12/8/18 13:36,495
12/8/18 13:36,517
12/8/18 13:36,491
12/8/18 13:36,513
12/8/18 13:36,503
12/8/18 13:36,497
12/8/18 13:36,516
12/8/18 13:36,490
12/8/18 13:36,514
12/8/18 13:36,502
12/8/18 13:36,497
12/8/18 13:36,517
12/8/18 13:36,490
12/8/18 13:36,515
12/8/18 13:36,500
12/8/18 13:36,498
12/8/18 13:36,515
12/8/18 13:36,489
12/8/18 13:36,517
12/8/18 13:36,499
12/8/18 13:36,512
12/8/18 13:36,518
12/8/18 13:36,496
12/8/18 13:36,531
12/8/18 13:36,498
12/8/18 13:36,492
12/8/18 13:36,507
12/8/18 13:36,484
12/8/18 13:36,515
12/8/18 13:36,495
12/8/18 13:36,503
12/8/18 13:36,516
12/8/18 13:36,492
12/8/18 13:36,519
12/8/18 13:36,494
12/8/18 13:36,504
12/8/18 13:36,509
12/8/18 13:36,488
12/8/18 13:36,514
12/8/18 13:36,489
12/8/18 13:36,502
12/8/18 13:36,507
12/8/18 13:36,488
12/8/18 13:36,515
12/8/18 13:36,493
12/8/18 13:36,506
12/8/18 13:36,509
12/8/18 13:36,493
12/8/18 13:36,518
12/8/18 13:36,494
12/8/18 13:36,510
12/8/18 13:36,509
12/8/18 13:36,495
12/8/18 13:36,522
12/8/18 13:36,493
12/8/18 13:36,513
12/8/18 13:36,508
12/8/18 13:36,498
12/8/18 13:36,519
12/8/18 13:36,493
12/8/18 13:36,513
12/8/18 13:36,507
12/8/18 13:36,497
12/8/18 13:36,516
12/8/18 13:36,492
12/8/18 13:36,515
12/8/18 13:36,505
12/8/18 13:36,498
12/8/18 13:36,519
12/8/18 13:36,491
12/8/18 13:36,515
12/8/18 13:36,503
12/8/18 13:36,499
12/8/18 13:36,518
12/8/18 13:36,490
12/8/18 13:36,515
12/8/18 13:36,501
12/8/18 13:36,498
12/8/18 13:36,516
12/8/18 13:36,490
12/8/18 13:36,516
12/8/18 13:36,500
12/8/18 13:36,499
12/8/18 13:36,516
12/8/18 13:36,491
12/8/18 13:36,517
12/8/18 13:36,500
12/8/18 13:36,501
12/8/18 13:36,517
12/8/18 13:36,493
12/8/18 13:36,518
12/8/18 13:36,498
12/8/18 13:36,493
12/8/18 13:36,501
12/8/18 13:36,490
12/8/18 13:36,522
12/8/18 13:36,500
12/8/18 13:36,507
12/8/18 13:36,517
12/8/18 13:36,494
12/8/18 13:36,521
12/8/18 13:36,496
12/8/18 13:36,507
12/8/18 13:36,514
12/8/18 13:36,492
12/8/18 13:36,519
12/8/18 13:36,495
12/8/18 13:36,506
12/8/18 13:36,509
12/8/18 13:36,492
12/8/18 13:36,519
12/8/18 13:36,494
12/8/18 13:36,508
12/8/18 13:36,508
12/8/18 13:36,493
12/8/18 13:36,518
12/8/18 13:36,490
12/8/18 13:36,509
12/8/18 13:36,509
12/8/18 13:36,495
12/8/18 13:36,526
12/8/18 13:36,500
12/8/18 13:36,514
12/8/18 13:36,518
12/8/18 13:36,498
12/8/18 13:36,507
12/8/18 13:36,483
12/8/18 13:36,506
12/8/18 13:36,502
12/8/18 13:36,495
12/8/18 13:36,515
12/8/18 13:36,489
12/8/18 13:36,514
12/8/18 13:36,505
12/8/18 13:36,499
12/8/18 13:36,518
12/8/18 13:36,487
12/8/18 13:36,512
12/8/18 13:36,495
12/8/18 13:36,494
12/8/18 13:36,511
12/8/18 13:36,488
12/8/18 13:36,513
12/8/18 13:36,497
12/8/18 13:36,497
12/8/18 13:36,513
12/8/18 13:36,489
12/8/18 13:36,517
12/8/18 13:36,498
12/8/18 13:45,501
12/8/18 13:45,501
12/8/18 13:45,504
12/8/18 13:45,502
12/8/18 13:45,503
12/8/18 13:45,503
12/8/18 13:45,502
12/8/18 13:45,503
12/8/18 13:45,502
12/8/18 13:45,503
12/8/18 13:45,505
12/8/18 13:45,501
12/8/18 13:45,504
12/8/18 13:45,503
12/8/18 13:45,503
12/8/18 13:45,503
12/8/18 13:45,503
12/8/18 13:45,502
12/8/18 13:45,498
12/8/18 13:45,500
12/8/18 13:45,493
12/8/18 13:45,502
12/8/18 13:45,509
12/8/18 13:45,509
12/8/18 13:45,508
12/8/18 13:45,508
12/8/18 13:45,509
12/8/18 13:45,508
12/8/18 13:45,504
12/8/18 13:45,505
12/8/18 13:45,505
12/8/18 13:45,523
12/8/18 13:45,504
12/8/18 13:45,509
12/8/18 13:45,519
12/8/18 13:45,504
12/8/18 13:45,491
12/8/18 13:45,495
12/8/18 13:45,495
12/8/18 13:45,498
12/8/18 13:45,505
12/8/18 13:45,507
12/8/18 13:45,504
12/8/18 13:45,505
12/8/18 13:45,508
12/8/18 13:45,504
12/8/18 13:45,504
12/8/18 13:45,504
12/8/18 13:45,501
12/8/18 13:45,501
12/8/18 13:45,500
12/8/18 13:45,500
12/8/18 13:45,503
12/8/18 13:45,499
12/8/18 13:45,502
12/8/18 13:45,502
12/8/18 13:45,502
12/8/18 13:45,503
12/8/18 13:45,503
12/8/18 13:45,505
12/8/18 13:45,503
12/8/18 13:45,505
12/8/18 13:45,505
12/8/18 13:45,504
12/8/18 13:45,507
12/8/18 13:45,506
12/8/18 13:45,506
12/8/18 13:45,507
12/8/18 13:45,504
12/8/18 13:45,507
12/8/18 13:45,506
12/8/18 13:45,506
12/8/18 13:45,507
12/8/18 13:45,505
12/8/18 13:45,507
12/8/18 13:45,504
12/8/18 13:45,506
12/8/18 13:45,505
12/8/18 13:45,503
12/8/18 13:45,507
12/8/18 13:45,504
12/8/18 13:45,505
12/8/18 13:45,505
12/8/18 13:45,505
12/8/18 13:45,507
12/8/18 13:45,503
12/8/18 13:45,505
12/8/18 13:45,507
12/8/18 13:45,504
12/8/18 13:45,504
12/8/18 13:45,499
12/8/18 13:45,504
12/8/18 13:45,506
12/8/18 13:45,506
12/8/18 13:45,507
12/8/18 13:45,506
12/8/18 13:45,508
12/8/18 13:45,507
12/8/18 13:45,506
12/8/18 13:45,507
12/8/18 13:45,504
12/8/18 13:45,504
12/8/18 13:45,505
12/8/18 13:45,504
12/8/18 13:45,504
12/8/18 13:45,503
12/8/18 13:45,505
12/8/18 13:45,505
12/8/18 13:45,504
12/8/18 13:45,505
12/8/18 13:45,503
12/8/18 13:45,504
12/8/18 13:45,504
12/8/18 13:45,503
12/8/18 13:45,505
12/8/18 13:45,503
12/8/18 13:45,504
12/8/18 13:45,504
12/8/18 13:45,504
12/8/18 13:45,504
12/8/18 13:45,504
12/8/18 13:45,504
12/8/18 13:45,504
12/8/18 13:45,504
12/8/18 13:45,502
12/8/18 13:45,503
12/8/18 13:45,503
12/8/18 13:45,504
12/8/18 13:45,505
12/8/18 13:45,506
12/8/18 13:45,504
12/8/18 13:45,505
12/8/18 13:45,503
12/8/18 13:45,507
12/8/18 13:45,521
12/8/18 13:45,504
12/8/18 13:45,519
12/8/18 13:45,509
12/8/18 13:45,494
12/8/18 13:45,495
12/8/18 13:45,498
12/8/18 13:45,497
12/8/18 13:45,502
12/8/18 13:45,509
12/8/18 13:45,510
12/8/18 13:45,501
12/8/18 13:45,503
12/8/18 13:45,500
12/8/18 13:45,497
12/8/18 13:45,501
12/8/18 13:45,499
12/8/18 13:45,502
12/8/18 13:45,502
12/8/18 13:45,502
12/8/18 13:45,501
12/8/18 13:45,503
12/8/18 13:45,504
12/8/18 13:45,504
12/8/18 13:45,504
12/8/18 13:45,503
12/8/18 13:45,504
12/8/18 13:45,506
12/8/18 13:45,505
12/8/18 13:45,504
12/8/18 13:45,506
12/8/18 13:45,505
12/8/18 13:45,509
12/8/18 13:45,504
12/8/18 13:45,506
12/8/18 13:45,505
12/8/18 13:45,505
12/8/18 13:45,506
12/8/18 13:45,505
12/8/18 13:45,507
12/8/18 13:45,506
12/8/18 13:45,504
12/8/18 13:45,506
12/8/18 13:45,505
12/8/18 13:45,506
12/8/18 13:45,505
12/8/18 13:45,505
12/8/18 13:45,505
12/8/18 13:45,504
12/8/18 13:45,504
12/8/18 13:45,505
12/8/18 13:45,506
12/8/18 13:45,506
12/8/18 13:45,503
12/8/18 13:45,506
12/8/18 13:45,505
12/8/18 13:45,505
12/8/18 13:45,505
12/8/18 13:45,503
12/8/18 13:45,505
12/8/18 13:45,504
12/8/18 13:45,505
12/8/18 13:45,504
12/8/18 13:45,504
12/8/18 13:45,506
12/8/18 13:45,503
12/8/18 13:45,505
12/8/18 13:45,505
12/8/18 13:45,503
12/8/18 13:45,505
12/8/18 13:45,503
12/8/18 13:45,504
12/8/18 13:45,505
12/8/18 13:45,504
12/8/18 13:45,506
12/8/18 13:45,504
12/8/18 13:45,503
12/8/18 13:45,505
12/8/18 13:45,505
12/8/18 13:45,506
12/8/18 13:45,503
12/8/18 13:45,504
12/8/18 13:45,503
12/8/18 13:45,503
12/8/18 13:45,505
12/8/18 13:45,502
12/8/18 13:45,505
12/8/18 13:45,491
12/8/18 13:45,494
12/8/18 13:45,506
12/8/18 13:45,509
12/8/18 13:45,508
12/8/18 13:45,507
12/8/18 13:45,506
12/8/18 13:45,508
12/8/18 13:45,506
12/8/18 13:45,505
12/8/18 13:45,504
12/8/18 13:45,504
12/8/18 13:45,506
12/8/18 13:45,510
12/8/18 13:45,517
12/8/18 13:45,508
12/8/18 13:45,518
12/8/18 13:45,506
12/8/18 13:45,494
12/8/18 13:45,493
12/8/18 13:45,498
12/8/18 13:45,501
12/8/18 13:45,505
12/8/18 13:45,503
12/8/18 13:45,502
12/8/18 13:45,501
12/8/18 13:45,503
12/8/18 13:45,505
12/8/18 13:45,503
12/8/18 13:45,503
12/8/18 13:45,500
12/8/18 13:45,501
12/8/18 13:45,504
12/8/18 13:45,502
12/8/18 13:45,502
12/8/18 13:45,501
12/8/18 13:45,501
12/8/18 13:45,502
12/8/18 13:45,502
12/8/18 13:45,503
12/8/18 13:45,503
12/8/18 13:45,505
12/8/18 13:45,507
12/8/18 13:45,504
12/8/18 13:45,507
12/8/18 13:45,506
12/8/18 13:45,507
12/8/18 13:45,508
12/8/18 13:45,505
12/8/18 13:45,507
12/8/18 13:45,505
12/8/18 13:45,505
12/8/18 13:45,504
12/8/18 13:45,502
12/8/18 13:45,508
12/8/18 13:45,505
12/8/18 13:45,508
12/8/18 13:45,507
12/8/18 13:45,505
12/8/18 13:45,507
12/8/18 13:45,506
12/8/18 13:45,506
12/8/18 13:45,505
12/8/18 13:45,505
12/8/18 13:45,505
12/8/18 13:45,503
12/8/18 13:45,505
12/8/18 13:45,505
12/8/18 13:45,503
12/8/18 13:45,505
12/8/18 13:45,503
12/8/18 13:45,505
12/8/18 13:45,504
12/8/18 13:45,505
12/8/18 13:45,506
12/8/18 13:45,505
12/8/18 13:45,506
12/8/18 13:45,504
12/8/18 13:45,504
12/8/18 13:45,505
12/8/18 13:45,502
12/8/18 13:45,504
12/8/18 13:45,504
12/8/18 13:45,504
12/8/18 13:45,506
12/8/18 13:45,502
12/8/18 13:45,505
12/8/18 13:45,505
12/8/18 13:45,506
12/8/18 13:45,506
12/8/18 13:45,502
12/8/18 13:45,504
12/8/18 13:45,503
12/8/18 13:45,503
12/8/18 13:45,503
12/8/18 13:45,503
12/8/18 13:45,505
12/8/18 13:45,504
12/8/18 13:45,504
12/8/18 13:45,504
12/8/18 13:45,501
12/8/18 13:45,505
12/8/18 13:45,503
12/8/18 13:45,503
12/8/18 13:45,504
12/8/18 13:45,499
12/8/18 13:45,492
12/8/18 13:45,502
12/8/18 13:45,508
12/8/18 13:45,509
12/8/18 13:45,508
12/8/18 13:45,507
12/8/18 13:45,507
12/8/18 13:45,526
12/8/18 13:45,507
12/8/18 13:45,513
12/8/18 13:45,518
12/8/18 13:45,501
12/8/18 13:45,492
12/8/18 13:45,496
12/8/18 13:45,502
12/8/18 13:45,509
12/8/18 13:45,502
12/8/18 13:45,501
12/8/18 13:45,502
12/8/18 13:45,501
12/8/18 13:45,505
12/8/18 13:45,503
12/8/18 13:45,502
12/8/18 13:45,502
12/8/18 13:45,498
12/8/18 13:45,501
12/8/18 13:45,500
12/8/18 13:45,500
12/8/18 13:45,502
12/8/18 13:45,502
12/8/18 13:45,505
12/8/18 13:45,501
12/8/18 13:45,504
12/8/18 13:45,504
12/8/18 13:45,503
12/8/18 13:45,505
12/8/18 13:45,504
12/8/18 13:45,504
12/8/18 13:45,504
12/8/18 13:45,505
12/8/18 13:45,507
12/8/18 13:45,505
12/8/18 13:45,505
12/8/18 13:45,505
12/8/18 13:45,506
12/8/18 13:45,505
12/8/18 13:45,505
12/8/18 13:45,506
12/8/18 13:45,506
12/8/18 13:45,505
12/8/18 13:45,507
12/8/18 13:45,505
12/8/18 13:45,506
12/8/18 13:45,505
12/8/18 13:45,506
12/8/18 13:45,504
12/8/18 13:45,503
12/8/18 13:45,508
12/8/18 13:45,506
12/8/18 13:45,504
12/8/18 13:45,505
12/8/18 13:45,504
12/8/18 13:45,504
12/8/18 13:45,504
12/8/18 13:45,505
12/8/18 13:45,506
12/8/18 13:45,504
12/8/18 13:45,505
12/8/18 13:45,503
12/8/18 13:45,505
12/8/18 13:45,505
12/8/18 13:45,505
12/8/18 13:45,507
12/8/18 13:45,504
12/8/18 13:45,504
12/8/18 13:45,505
12/8/18 13:45,502
12/8/18 13:45,506
12/8/18 13:45,503
12/8/18 13:45,504
12/8/18 13:45,506
12/8/18 13:45,503
12/8/18 13:45,505
12/8/18 13:45,505
12/8/18 13:45,505
12/8/18 13:45,504
12/8/18 13:45,503
12/8/18 13:45,506
12/8/18 13:45,503
12/8/18 13:45,505
12/8/18 13:45,501
12/8/18 13:45,503
12/8/18 13:45,505
12/8/18 13:45,503
12/8/18 13:45,505
12/8/18 13:45,503
12/8/18 13:45,502
12/8/18 13:45,500
12/8/18 13:45,487
12/8/18 13:45,500
12/8/18 13:45,508
12/8/18 13:45,509
12/8/18 13:45,511
12/8/18 13:45,508
12/8/18 13:45,510
12/8/18 13:45,506
12/8/18 13:45,508
12/8/18 13:45,505
12/8/18 13:45,503
12/8/18 13:45,529
12/8/18 13:45,504
12/8/18 13:45,516
12/8/18 13:45,515
12/8/18 13:45,497
12/8/18 13:45,493
12/8/18 13:45,499
12/8/18 13:45,497
12/8/18 13:45,503
12/8/18 13:45,502
12/8/18 13:45,506
12/8/18 13:45,507
12/8/18 13:45,506
12/8/18 13:45,503
12/8/18 13:45,501
12/8/18 13:45,503
12/8/18 13:45,501
12/8/18 13:45,499
12/8/18 13:45,500
12/8/18 13:45,498
12/8/18 13:45,501
12/8/18 13:45,500
12/8/18 13:45,502
12/8/18 13:45,501
12/8/18 13:45,501
12/8/18 13:45,504
12/8/18 13:45,504
12/8/18 13:45,505
12/8/18 13:45,502
12/8/18 13:45,504
12/8/18 13:45,505
12/8/18 13:45,505
12/8/18 13:45,504
12/8/18 13:45,492
12/8/18 13:45,500
12/8/18 13:45,509
12/8/18 13:45,507
12/8/18 13:45,506
12/8/18 13:45,508
12/8/18 13:45,509
12/8/18 13:45,513
12/8/18 13:45,510
12/8/18 13:45,508
12/8/18 13:45,508
12/8/18 13:45,507
12/8/18 13:45,506
12/8/18 13:45,506
12/8/18 13:45,508
12/8/18 13:45,506
12/8/18 13:45,505
12/8/18 13:45,506
12/8/18 13:45,505
12/8/18 13:45,504
12/8/18 13:45,504
12/8/18 13:45,502
12/8/18 13:45,504
12/8/18 13:45,503
12/8/18 13:45,504
12/8/18 13:45,504
12/8/18 13:45,503
12/8/18 13:45,505
12/8/18 13:45,504
12/8/18 13:45,503
12/8/18 13:45,506
12/8/18 13:45,505
12/8/18 13:45,506
12/8/18 13:45,503
12/8/18 13:45,506
12/8/18 13:45,505
12/8/18 13:45,506
12/8/18 13:45,505
12/8/18 13:45,505
12/8/18 13:45,504
12/8/18 13:45,504
12/8/18 13:45,504
12/8/18 13:45,505
12/8/18 13:45,504
12/8/18 13:45,505
12/8/18 13:45,503
12/8/18 13:45,504
12/8/18 13:45,503
12/8/18 13:45,502
12/8/18 13:45,504
12/8/18 13:45,504
12/8/18 13:45,504
12/8/18 13:45,504
12/8/18 13:45,502
12/8/18 13:45,505
12/8/18 13:45,502
12/8/18 13:45,503
12/8/18 13:45,504
12/8/18 13:45,504
12/8/18 13:45,505
12/8/18 13:45,503
12/8/18 13:45,505
12/8/18 13:45,505
12/8/18 13:45,504
12/8/18 13:45,504
12/8/18 13:45,502
12/8/18 13:45,491
12/8/18 13:45,500
12/8/18 13:45,506
12/8/18 13:45,532
12/8/18 13:45,506
12/8/18 13:45,520
12/8/18 13:45,518
12/8/18 13:45,499
12/8/18 13:45,498
12/8/18 13:45,500
12/8/18 13:45,497
12/8/18 13:45,500
12/8/18 13:45,502
12/8/18 13:45,505
12/8/18 13:45,505
12/8/18 13:45,505
12/8/18 13:45,508
12/8/18 13:45,507
12/8/18 13:45,501
12/8/18 13:45,497
12/8/18 13:45,497
12/8/18 13:45,500
12/8/18 13:45,498
12/8/18 13:45,502
12/8/18 13:45,501
12/8/18 13:45,504
12/8/18 13:45,503
12/8/18 13:45,503
12/8/18 13:45,505
12/8/18 13:45,505
12/8/18 13:45,507
12/8/18 13:45,504
12/8/18 13:45,503
12/8/18 13:45,506
12/8/18 13:45,505
12/8/18 13:45,506
12/8/18 13:45,506
12/8/18 13:45,506
12/8/18 13:45,507
12/8/18 13:45,505
12/8/18 13:45,506
12/8/18 13:45,505
12/8/18 13:45,505
12/8/18 13:45,505
12/8/18 13:45,505
12/8/18 13:45,506
12/8/18 13:45,505
12/8/18 13:45,506
12/8/18 13:45,506
12/8/18 13:45,505
12/8/18 13:45,507
12/8/18 13:45,503
12/8/18 13:45,504
12/8/18 13:45,506
12/8/18 13:45,506
12/8/18 13:45,504
12/8/18 13:45,501
12/8/18 13:45,505
12/8/18 13:45,508
12/8/18 13:45,505
12/8/18 13:45,506
12/8/18 13:45,506
12/8/18 13:45,506
12/8/18 13:45,503
12/8/18 13:45,503
12/8/18 13:54,504
12/8/18 13:54,503
12/8/18 13:54,497
12/8/18 13:54,495
12/8/18 13:54,498
12/8/18 13:54,500
12/8/18 13:54,501
12/8/18 13:54,502
12/8/18 13:54,501
12/8/18 13:54,501
12/8/18 13:54,504
12/8/18 13:54,502
12/8/18 13:54,504
12/8/18 13:54,503
12/8/18 13:54,503
12/8/18 13:54,504
12/8/18 13:54,503
12/8/18 13:54,506
12/8/18 13:54,504
12/8/18 13:54,503
12/8/18 13:54,506
12/8/18 13:54,504
12/8/18 13:54,507
12/8/18 13:54,505
12/8/18 13:54,504
12/8/18 13:54,507
12/8/18 13:54,505
12/8/18 13:54,507
12/8/18 13:54,503
12/8/18 13:54,507
12/8/18 13:54,504
12/8/18 13:54,505
12/8/18 13:54,505
12/8/18 13:54,504
12/8/18 13:54,505
12/8/18 13:54,506
12/8/18 13:54,504
12/8/18 13:54,505
12/8/18 13:54,504
12/8/18 13:54,506
12/8/18 13:54,507
12/8/18 13:54,504
12/8/18 13:54,507
12/8/18 13:54,506
12/8/18 13:54,505
12/8/18 13:54,505
12/8/18 13:54,505
12/8/18 13:54,507
12/8/18 13:54,503
12/8/18 13:54,505
12/8/18 13:54,505
12/8/18 13:54,504
12/8/18 13:54,504
12/8/18 13:54,506
12/8/18 13:54,507
12/8/18 13:54,503
12/8/18 13:54,505
12/8/18 13:54,505
12/8/18 13:54,501
12/8/18 13:54,506
12/8/18 13:54,505
12/8/18 13:54,503
12/8/18 13:54,507
12/8/18 13:54,503
12/8/18 13:54,505
12/8/18 13:54,503
12/8/18 13:54,504
12/8/18 13:54,506
12/8/18 13:54,503
12/8/18 13:54,504
12/8/18 13:54,503
12/8/18 13:54,503
12/8/18 13:54,506
12/8/18 13:54,503
12/8/18 13:54,505
12/8/18 13:54,503
12/8/18 13:54,503
12/8/18 13:54,492
12/8/18 13:54,492
12/8/18 13:54,506
12/8/18 13:54,509
12/8/18 13:54,509
12/8/18 13:54,509
12/8/18 13:54,507
12/8/18 13:54,511
12/8/18 13:54,506
12/8/18 13:54,505
12/8/18 13:54,507
12/8/18 13:54,506
12/8/18 13:54,525
12/8/18 13:54,501
12/8/18 13:54,513
12/8/18 13:54,518
12/8/18 13:54,499
12/8/18 13:54,495
12/8/18 13:54,495
12/8/18 13:54,501
12/8/18 13:54,500
12/8/18 13:54,502
12/8/18 13:54,503
12/8/18 13:54,502
12/8/18 13:54,503
12/8/18 13:54,502
12/8/18 13:54,501
12/8/18 13:54,503
12/8/18 13:54,500
12/8/18 13:54,500
12/8/18 13:54,500
12/8/18 13:54,500
12/8/18 13:54,502
12/8/18 13:54,502
12/8/18 13:54,502
12/8/18 13:54,503
12/8/18 13:54,503
12/8/18 13:54,506
12/8/18 13:54,503
12/8/18 13:54,505
12/8/18 13:54,505
12/8/18 13:54,505
12/8/18 13:54,507
12/8/18 13:54,505
12/8/18 13:54,506
12/8/18 13:54,507
12/8/18 13:54,505
12/8/18 13:54,506
12/8/18 13:54,505
12/8/18 13:54,507
12/8/18 13:54,505
12/8/18 13:54,506
12/8/18 13:54,505
12/8/18 13:54,504
12/8/18 13:54,506
12/8/18 13:54,505
12/8/18 13:54,506
12/8/18 13:54,506
12/8/18 13:54,504
12/8/18 13:54,505
12/8/18 13:54,504
12/8/18 13:54,506
12/8/18 13:54,505
12/8/18 13:54,503
12/8/18 13:54,501
12/8/18 13:54,490
12/8/18 13:54,503
12/8/18 13:54,509
12/8/18 13:54,510
12/8/18 13:54,510
12/8/18 13:54,507
12/8/18 13:54,507
12/8/18 13:54,507
12/8/18 13:54,506
12/8/18 13:54,507
12/8/18 13:54,507
12/8/18 13:54,507
12/8/18 13:54,506
12/8/18 13:54,505
12/8/18 13:54,506
12/8/18 13:54,503
12/8/18 13:54,502
12/8/18 13:54,504
12/8/18 13:54,503
12/8/18 13:54,506
12/8/18 13:54,502
12/8/18 13:54,505
12/8/18 13:54,505
12/8/18 13:54,502
12/8/18 13:54,505
12/8/18 13:54,503
12/8/18 13:54,505
12/8/18 13:54,505
12/8/18 13:54,503
12/8/18 13:54,506
12/8/18 13:54,501
12/8/18 13:54,503
12/8/18 13:54,505
12/8/18 13:54,504
12/8/18 13:54,504
12/8/18 13:54,502
12/8/18 13:54,504
12/8/18 13:54,504
12/8/18 13:54,503
12/8/18 13:54,505
12/8/18 13:54,503
12/8/18 13:54,504
12/8/18 13:54,504
12/8/18 13:54,504
12/8/18 13:54,505
12/8/18 13:54,503
12/8/18 13:54,505
12/8/18 13:54,507
12/8/18 13:54,525
12/8/18 13:54,502
12/8/18 13:54,515
12/8/18 13:54,514
12/8/18 13:54,500
12/8/18 13:54,493
12/8/18 13:54,499
12/8/18 13:54,503
12/8/18 13:54,504
12/8/18 13:54,503
12/8/18 13:54,503
12/8/18 13:54,505
12/8/18 13:54,502
12/8/18 13:54,500
12/8/18 13:54,498
12/8/18 13:54,500
12/8/18 13:54,500
12/8/18 13:54,502
12/8/18 13:54,503
12/8/18 13:54,502
12/8/18 13:54,501
12/8/18 13:54,503
12/8/18 13:54,503
12/8/18 13:54,503
12/8/18 13:54,502
12/8/18 13:54,503
12/8/18 13:54,506
12/8/18 13:54,500
12/8/18 13:54,494
12/8/18 13:54,498
12/8/18 13:54,506
12/8/18 13:54,512
12/8/18 13:54,509
12/8/18 13:54,513
12/8/18 13:54,510
12/8/18 13:54,510
12/8/18 13:54,510
12/8/18 13:54,505
12/8/18 13:54,507
12/8/18 13:54,505
12/8/18 13:54,505
12/8/18 13:54,506
12/8/18 13:54,505
12/8/18 13:54,506
12/8/18 13:54,505
12/8/18 13:54,506
12/8/18 13:54,504
12/8/18 13:54,503
12/8/18 13:54,507
12/8/18 13:54,505
12/8/18 13:54,505
12/8/18 13:54,505
12/8/18 13:54,505
12/8/18 13:54,505
12/8/18 13:54,505
12/8/18 13:54,503
12/8/18 13:54,505
12/8/18 13:54,504
12/8/18 13:54,504
12/8/18 13:54,505
12/8/18 13:54,506
12/8/18 13:54,505
12/8/18 13:54,505
12/8/18 13:54,507
12/8/18 13:54,503
12/8/18 13:54,506
12/8/18 13:54,504
12/8/18 13:54,505
12/8/18 13:54,506
12/8/18 13:54,503
12/8/18 13:54,506
12/8/18 13:54,504
12/8/18 13:54,503
12/8/18 13:54,492
12/8/18 13:54,500
12/8/18 13:54,505
12/8/18 13:54,508
12/8/18 13:54,507
12/8/18 13:54,507
12/8/18 13:54,507
12/8/18 13:54,506
12/8/18 13:54,507
12/8/18 13:54,505
12/8/18 13:54,505
12/8/18 13:54,504
12/8/18 13:54,505
12/8/18 13:54,503
12/8/18 13:54,504
12/8/18 13:54,505
12/8/18 13:54,503
12/8/18 13:54,504
12/8/18 13:54,503
12/8/18 13:54,504
12/8/18 13:54,503
12/8/18 13:54,502
12/8/18 13:54,505
12/8/18 13:54,504
12/8/18 13:54,504
12/8/18 13:54,504
12/8/18 13:54,505
12/8/18 13:54,520
12/8/18 13:54,501
12/8/18 13:54,515
12/8/18 13:54,515
12/8/18 13:54,501
12/8/18 13:54,495
12/8/18 13:54,500
12/8/18 13:54,498
12/8/18 13:54,501
12/8/18 13:54,503
12/8/18 13:54,508
12/8/18 13:54,508
12/8/18 13:54,500
12/8/18 13:54,499
12/8/18 13:54,500
12/8/18 13:54,504
12/8/18 13:54,501
12/8/18 13:54,504
12/8/18 13:54,501
12/8/18 13:54,500
12/8/18 13:54,504
12/8/18 13:54,501
12/8/18 13:54,503
12/8/18 13:54,503
12/8/18 13:54,504
12/8/18 13:54,505
12/8/18 13:54,502
12/8/18 13:54,505
12/8/18 13:54,491
12/8/18 13:54,501
12/8/18 13:54,508
12/8/18 13:54,508
12/8/18 13:54,510
12/8/18 13:54,508
12/8/18 13:54,510
12/8/18 13:54,508
12/8/18 13:54,506
12/8/18 13:54,508
12/8/18 13:54,506
12/8/18 13:54,507
12/8/18 13:54,506
12/8/18 13:54,504
12/8/18 13:54,506
12/8/18 13:54,506
12/8/18 13:54,506
12/8/18 13:54,504
12/8/18 13:54,503
12/8/18 13:54,506
12/8/18 13:54,505
12/8/18 13:54,503
12/8/18 13:54,506
12/8/18 13:54,505
12/8/18 13:54,506
12/8/18 13:54,504
12/8/18 13:54,504
12/8/18 13:54,503
12/8/18 13:54,503
12/8/18 13:54,505
12/8/18 13:54,504
12/8/18 13:54,504
12/8/18 13:54,502
12/8/18 13:54,501
12/8/18 13:54,508
12/8/18 13:54,505
12/8/18 13:54,492
12/8/18 13:54,502
12/8/18 13:54,507
12/8/18 13:54,509
12/8/18 13:54,509
12/8/18 13:54,509
12/8/18 13:54,508
12/8/18 13:54,507
12/8/18 13:54,506
12/8/18 13:54,505
12/8/18 13:54,507
12/8/18 13:54,505
12/8/18 13:54,504
12/8/18 13:54,506
12/8/18 13:54,503
12/8/18 13:54,504
12/8/18 13:54,502
12/8/18 13:54,504
12/8/18 13:54,505
12/8/18 13:54,501
12/8/18 13:54,503
12/8/18 13:54,503
12/8/18 13:54,504
12/8/18 13:54,505
12/8/18 13:54,503
12/8/18 13:54,504
12/8/18 13:54,501
12/8/18 13:54,504
12/8/18 13:54,504
12/8/18 13:54,502
12/8/18 13:54,505
12/8/18 13:54,505
12/8/18 13:54,504
12/8/18 13:54,503
12/8/18 13:54,502
12/8/18 13:54,507
12/8/18 13:54,519
12/8/18 13:54,501
12/8/18 13:54,517
12/8/18 13:54,511
12/8/18 13:54,500
12/8/18 13:54,494
12/8/18 13:54,498
12/8/18 13:54,502
12/8/18 13:54,500
12/8/18 13:54,505
12/8/18 13:54,504
12/8/18 13:54,503
12/8/18 13:54,501
12/8/18 13:54,501
12/8/18 13:54,503
12/8/18 13:54,505
12/8/18 13:54,505
12/8/18 13:54,502
12/8/18 13:54,501
12/8/18 13:54,503
12/8/18 13:54,501
12/8/18 13:54,501
12/8/18 13:54,502
12/8/18 13:54,504
12/8/18 13:54,503
12/8/18 13:54,502
12/8/18 13:54,503
12/8/18 13:54,505
12/8/18 13:54,504
12/8/18 13:54,506
12/8/18 13:54,503
12/8/18 13:54,505
12/8/18 13:54,507
12/8/18 13:54,505
12/8/18 13:54,507
12/8/18 13:54,504
12/8/18 13:54,506
12/8/18 13:54,506
12/8/18 13:54,505
12/8/18 13:54,505
12/8/18 13:54,504
12/8/18 13:54,506
12/8/18 13:54,505
12/8/18 13:54,506
12/8/18 13:54,507
12/8/18 13:54,505
12/8/18 13:54,506
12/8/18 13:54,507
12/8/18 13:54,506
12/8/18 13:54,504
12/8/18 13:54,503
12/8/18 13:54,506
12/8/18 13:54,505
12/8/18 13:54,504
12/8/18 13:54,504
12/8/18 13:54,504
12/8/18 13:54,495
12/8/18 13:54,498
12/8/18 13:54,507
12/8/18 13:54,511
12/8/18 13:54,509
12/8/18 13:54,510
12/8/18 13:54,509
12/8/18 13:54,506
12/8/18 13:54,506
12/8/18 13:54,505
12/8/18 13:54,506
12/8/18 13:54,506
12/8/18 13:54,504
12/8/18 13:54,500
12/8/18 13:54,504
12/8/18 13:54,506
12/8/18 13:54,505
12/8/18 13:54,505
12/8/18 13:54,508
12/8/18 13:54,503
12/8/18 13:54,503
12/8/18 13:54,503
12/8/18 13:54,502
12/8/18 13:54,505
12/8/18 13:54,503
12/8/18 13:54,503
12/8/18 13:54,502
12/8/18 13:54,504
12/8/18 13:54,503
12/8/18 13:54,502
12/8/18 13:54,504
12/8/18 13:54,504
12/8/18 13:54,503
12/8/18 13:54,502
12/8/18 13:54,501
12/8/18 13:54,503
12/8/18 13:54,504
12/8/18 13:54,505
12/8/18 13:54,504
12/8/18 13:54,501
12/8/18 13:54,504
12/8/18 13:54,505
12/8/18 13:54,522
12/8/18 13:54,503
12/8/18 13:54,511
12/8/18 13:54,519
12/8/18 13:54,503
12/8/18 13:54,480
12/8/18 13:54,492
12/8/18 13:54,502
12/8/18 13:54,510
12/8/18 13:54,504
12/8/18 13:54,506
12/8/18 13:54,505
12/8/18 13:54,507
12/8/18 13:54,506
12/8/18 13:54,503
12/8/18 13:54,503
12/8/18 13:54,499
12/8/18 13:54,497
12/8/18 13:54,501
12/8/18 13:54,502
12/8/18 13:54,502
12/8/18 13:54,503
12/8/18 13:54,503
12/8/18 13:54,505
12/8/18 13:54,501
12/8/18 13:54,505
12/8/18 13:54,503
12/8/18 13:54,505
12/8/18 13:54,504
12/8/18 13:54,504
12/8/18 13:54,507
12/8/18 13:54,505
12/8/18 13:54,504
12/8/18 13:54,505
12/8/18 13:54,504
12/8/18 13:54,506
12/8/18 13:54,504
12/8/18 13:54,505
12/8/18 13:54,507
12/8/18 13:54,506
12/8/18 13:54,506
12/8/18 13:54,505
12/8/18 13:54,505
12/8/18 13:54,507
12/8/18 13:54,503
12/8/18 13:54,506
12/8/18 13:54,505
12/8/18 13:54,505
12/8/18 13:54,506
12/8/18 13:54,503
12/8/18 13:54,506
12/8/18 13:54,501
12/8/18 13:54,495
12/8/18 13:54,494
12/8/18 13:54,505
12/8/18 13:54,510
12/8/18 13:54,509
12/8/18 13:54,510
12/8/18 13:54,509
12/8/18 13:54,507
12/8/18 13:54,509
12/8/18 13:54,506
12/8/18 13:54,507
12/8/18 13:54,506
12/8/18 13:54,506
12/8/18 13:54,506
12/8/18 13:54,505
12/8/18 13:54,505
12/8/18 13:54,504
12/8/18 13:54,504
12/8/18 13:54,506
12/8/18 13:54,504
12/8/18 13:54,506
12/8/18 13:54,503
12/8/18 13:54,502
12/8/18 13:54,504
12/8/18 13:54,502
12/8/18 13:54,505
12/8/18 13:54,503
12/8/18 13:54,502
12/8/18 13:54,505
12/8/18 13:54,503
12/8/18 13:54,503
12/8/18 13:54,504
12/8/18 13:54,503
12/8/18 13:54,504
12/8/18 13:54,503
12/8/18 13:54,504
12/8/18 13:54,504
12/8/18 13:54,502
12/8/18 13:54,505
12/8/18 13:54,502
12/8/18 13:54,506
12/8/18 13:54,503
12/8/18 13:54,503
12/8/18 13:54,504
12/8/18 13:54,504
12/8/18 13:54,506
12/8/18 13:54,503
12/8/18 13:54,507
12/8/18 13:54,516
12/8/18 13:54,505
12/8/18 13:54,519
12/8/18 13:54,509
12/8/18 13:54,497
12/8/18 13:54,498
12/8/18 13:54,494
12/8/18 13:54,486
12/8/18 13:54,504
12/8/18 13:54,506
12/8/18 13:54,503
12/8/18 13:54,503
12/8/18 14:03,501
12/8/18 14:03,504
12/8/18 14:03,484
12/8/18 14:03,513
12/8/18 14:03,506
12/8/18 14:03,501
12/8/18 14:03,519
12/8/18 14:03,491
12/8/18 14:03,517
12/8/18 14:03,504
12/8/18 14:03,500
12/8/18 14:03,517
12/8/18 14:03,492
12/8/18 14:03,514
12/8/18 14:03,501
12/8/18 14:03,493
12/8/18 14:03,515
12/8/18 14:03,493
12/8/18 14:03,517
12/8/18 14:03,498
12/8/18 14:03,500
12/8/18 14:03,516
12/8/18 14:03,491
12/8/18 14:03,518
12/8/18 14:03,500
12/8/18 14:03,498
12/8/18 14:03,515
12/8/18 14:03,491
12/8/18 14:03,518
12/8/18 14:03,497
12/8/18 14:03,500
12/8/18 14:03,511
12/8/18 14:03,491
12/8/18 14:03,517
12/8/18 14:03,494
12/8/18 14:03,504
12/8/18 14:03,513
12/8/18 14:03,490
12/8/18 14:03,518
12/8/18 14:03,495
12/8/18 14:03,504
12/8/18 14:03,510
12/8/18 14:03,492
12/8/18 14:03,518
12/8/18 14:03,494
12/8/18 14:03,507
12/8/18 14:03,521
12/8/18 14:03,495
12/8/18 14:03,522
12/8/18 14:03,507
12/8/18 14:03,510
12/8/18 14:03,502
12/8/18 14:03,485
12/8/18 14:03,513
12/8/18 14:03,488
12/8/18 14:03,507
12/8/18 14:03,511
12/8/18 14:03,494
12/8/18 14:03,518
12/8/18 14:03,490
12/8/18 14:03,510
12/8/18 14:03,504
12/8/18 14:03,485
12/8/18 14:03,509
12/8/18 14:03,484
12/8/18 14:03,506
12/8/18 14:03,504
12/8/18 14:03,485
12/8/18 14:03,504
12/8/18 14:03,492
12/8/18 14:03,519
12/8/18 14:03,511
12/8/18 14:03,503
12/8/18 14:03,524
12/8/18 14:03,498
12/8/18 14:03,520
12/8/18 14:03,508
12/8/18 14:03,499
12/8/18 14:03,520
12/8/18 14:03,491
12/8/18 14:03,515
12/8/18 14:03,502
12/8/18 14:03,499
12/8/18 14:03,517
12/8/18 14:03,492
12/8/18 14:03,517
12/8/18 14:03,503
12/8/18 14:03,501
12/8/18 14:03,517
12/8/18 14:03,491
12/8/18 14:03,518
12/8/18 14:03,500
12/8/18 14:03,500
12/8/18 14:03,517
12/8/18 14:03,491
12/8/18 14:03,516
12/8/18 14:03,498
12/8/18 14:03,501
12/8/18 14:03,514
12/8/18 14:03,491
12/8/18 14:03,518
12/8/18 14:03,497
12/8/18 14:03,503
12/8/18 14:03,514
12/8/18 14:03,490
12/8/18 14:03,518
12/8/18 14:03,497
12/8/18 14:03,504
12/8/18 14:03,514
12/8/18 14:03,492
12/8/18 14:03,520
12/8/18 14:03,496
12/8/18 14:03,505
12/8/18 14:03,511
12/8/18 14:03,493
12/8/18 14:03,519
12/8/18 14:03,495
12/8/18 14:03,508
12/8/18 14:03,511
12/8/18 14:03,492
12/8/18 14:03,519
12/8/18 14:03,494
12/8/18 14:03,507
12/8/18 14:03,509
12/8/18 14:03,494
12/8/18 14:03,518
12/8/18 14:03,493
12/8/18 14:03,508
12/8/18 14:03,508
12/8/18 14:03,493
12/8/18 14:03,518
12/8/18 14:03,492
12/8/18 14:03,509
12/8/18 14:03,505
12/8/18 14:03,494
12/8/18 14:03,517
12/8/18 14:03,491
12/8/18 14:03,510
12/8/18 14:03,507
12/8/18 14:03,496
12/8/18 14:03,518
12/8/18 14:03,490
12/8/18 14:03,512
12/8/18 14:03,515
12/8/18 14:03,497
12/8/18 14:03,521
12/8/18 14:03,505
12/8/18 14:03,518
12/8/18 14:03,498
12/8/18 14:03,488
12/8/18 14:03,513
12/8/18 14:03,488
12/8/18 14:03,514
12/8/18 14:03,501
12/8/18 14:03,495
12/8/18 14:03,514
12/8/18 14:03,486
12/8/18 14:03,501
12/8/18 14:03,497
12/8/18 14:03,497
12/8/18 14:03,517
12/8/18 14:03,490
12/8/18 14:03,519
12/8/18 14:03,500
12/8/18 14:03,501
12/8/18 14:03,515
12/8/18 14:03,491
12/8/18 14:03,518
12/8/18 14:03,499
12/8/18 14:03,503
12/8/18 14:03,516
12/8/18 14:03,491
12/8/18 14:03,519
12/8/18 14:03,498
12/8/18 14:03,503
12/8/18 14:03,515
12/8/18 14:03,492
12/8/18 14:03,519
12/8/18 14:03,497
12/8/18 14:03,504
12/8/18 14:03,513
12/8/18 14:03,493
12/8/18 14:03,520
12/8/18 14:03,497
12/8/18 14:03,503
12/8/18 14:03,514
12/8/18 14:03,495
12/8/18 14:03,519
12/8/18 14:03,496
12/8/18 14:03,507
12/8/18 14:03,510
12/8/18 14:03,494
12/8/18 14:03,519
12/8/18 14:03,494
12/8/18 14:03,507
12/8/18 14:03,510
12/8/18 14:03,493
12/8/18 14:03,520
12/8/18 14:03,493
12/8/18 14:03,509
12/8/18 14:03,507
12/8/18 14:03,487
12/8/18 14:03,506
12/8/18 14:03,488
12/8/18 14:03,513
12/8/18 14:03,514
12/8/18 14:03,499
12/8/18 14:03,524
12/8/18 14:03,496
12/8/18 14:03,516
12/8/18 14:03,508
12/8/18 14:03,497
12/8/18 14:03,520
12/8/18 14:03,492
12/8/18 14:03,515
12/8/18 14:03,505
12/8/18 14:03,497
12/8/18 14:03,517
12/8/18 14:03,490
12/8/18 14:03,513
12/8/18 14:03,503
12/8/18 14:03,495
12/8/18 14:03,517
12/8/18 14:03,488
12/8/18 14:03,513
12/8/18 14:03,502
12/8/18 14:03,498
12/8/18 14:03,517
12/8/18 14:03,488
12/8/18 14:03,516
12/8/18 14:03,499
12/8/18 14:03,499
12/8/18 14:03,515
12/8/18 14:03,492
12/8/18 14:03,515
12/8/18 14:03,498
12/8/18 14:03,500
12/8/18 14:03,514
12/8/18 14:03,488
12/8/18 14:03,523
12/8/18 14:03,506
12/8/18 14:03,503
12/8/18 14:03,525
12/8/18 14:03,495
12/8/18 14:03,510
12/8/18 14:03,491
12/8/18 14:03,496
12/8/18 14:03,508
12/8/18 14:03,489
12/8/18 14:03,514
12/8/18 14:03,494
12/8/18 14:03,507
12/8/18 14:03,513
12/8/18 14:03,495
12/8/18 14:03,520
12/8/18 14:03,497
12/8/18 14:03,503
12/8/18 14:03,509
12/8/18 14:03,489
12/8/18 14:03,514
12/8/18 14:03,489
12/8/18 14:03,502
12/8/18 14:03,506
12/8/18 14:03,487
12/8/18 14:03,515
12/8/18 14:03,495
12/8/18 14:03,506
12/8/18 14:03,508
12/8/18 14:03,493
12/8/18 14:03,521
12/8/18 14:03,492
12/8/18 14:03,510
12/8/18 14:03,510
12/8/18 14:03,497
12/8/18 14:03,519
12/8/18 14:03,493
12/8/18 14:03,513
12/8/18 14:03,506
12/8/18 14:03,495
12/8/18 14:03,521
12/8/18 14:03,492
12/8/18 14:03,514
12/8/18 14:03,507
12/8/18 14:03,498
12/8/18 14:03,518
12/8/18 14:03,494
12/8/18 14:03,514
12/8/18 14:03,503
12/8/18 14:03,496
12/8/18 14:03,520
12/8/18 14:03,491
12/8/18 14:03,516
12/8/18 14:03,504
12/8/18 14:03,497
12/8/18 14:03,516
12/8/18 14:03,492
12/8/18 14:03,516
12/8/18 14:03,502
12/8/18 14:03,501
12/8/18 14:03,517
12/8/18 14:03,490
12/8/18 14:03,516
12/8/18 14:03,501
12/8/18 14:03,500
12/8/18 14:03,516
12/8/18 14:03,491
12/8/18 14:03,518
12/8/18 14:03,500
12/8/18 14:03,501
12/8/18 14:03,515
12/8/18 14:03,490
12/8/18 14:03,511
12/8/18 14:03,497
12/8/18 14:03,503
12/8/18 14:03,517
12/8/18 14:03,493
12/8/18 14:03,520
12/8/18 14:03,498
12/8/18 14:03,504
12/8/18 14:03,514
12/8/18 14:03,491
12/8/18 14:03,518
12/8/18 14:03,495
12/8/18 14:03,504
12/8/18 14:03,511
12/8/18 14:03,491
12/8/18 14:03,519
12/8/18 14:03,491
12/8/18 14:03,507
12/8/18 14:03,511
12/8/18 14:03,491
12/8/18 14:03,517
12/8/18 14:03,493
12/8/18 14:03,507
12/8/18 14:03,508
12/8/18 14:03,492
12/8/18 14:03,518
12/8/18 14:03,493
12/8/18 14:03,509
12/8/18 14:03,508
12/8/18 14:03,496
12/8/18 14:03,537
12/8/18 14:03,491
12/8/18 14:03,521
12/8/18 14:03,515
12/8/18 14:03,489
12/8/18 14:03,507
12/8/18 14:03,486
12/8/18 14:03,509
12/8/18 14:03,504
12/8/18 14:03,493
12/8/18 14:03,517
12/8/18 14:03,488
12/8/18 14:03,510
12/8/18 14:03,502
12/8/18 14:03,496
12/8/18 14:03,518
12/8/18 14:03,487
12/8/18 14:03,510
12/8/18 14:03,500
12/8/18 14:03,493
12/8/18 14:03,513
12/8/18 14:03,488
12/8/18 14:03,515
12/8/18 14:03,502
12/8/18 14:03,497
12/8/18 14:03,517
12/8/18 14:03,491
12/8/18 14:03,516
12/8/18 14:03,502
12/8/18 14:03,497
12/8/18 14:03,518
12/8/18 14:03,493
12/8/18 14:03,517
12/8/18 14:03,502
12/8/18 14:03,501
12/8/18 14:03,517
12/8/18 14:03,490
12/8/18 14:03,518
12/8/18 14:03,500
12/8/18 14:03,502
12/8/18 14:03,516
12/8/18 14:03,492
12/8/18 14:03,520
12/8/18 14:03,497
12/8/18 14:03,503
12/8/18 14:03,515
12/8/18 14:03,491
12/8/18 14:03,517
12/8/18 14:03,498
12/8/18 14:03,505
12/8/18 14:03,513
12/8/18 14:03,494
12/8/18 14:03,520
12/8/18 14:03,496
12/8/18 14:03,504
12/8/18 14:03,512
12/8/18 14:03,493
12/8/18 14:03,518
12/8/18 14:03,494
12/8/18 14:03,507
12/8/18 14:03,512
12/8/18 14:03,485
12/8/18 14:03,509
12/8/18 14:03,493
12/8/18 14:03,513
12/8/18 14:03,513
12/8/18 14:03,499
12/8/18 14:03,522
12/8/18 14:03,496
12/8/18 14:03,511
12/8/18 14:03,506
12/8/18 14:03,493
12/8/18 14:03,520
12/8/18 14:03,495
12/8/18 14:03,514
12/8/18 14:03,508
12/8/18 14:03,495
12/8/18 14:03,519
12/8/18 14:03,492
12/8/18 14:03,510
12/8/18 14:03,506
12/8/18 14:03,495
12/8/18 14:03,519
12/8/18 14:03,491
12/8/18 14:03,510
12/8/18 14:03,503
12/8/18 14:03,493
12/8/18 14:03,516
12/8/18 14:03,491
12/8/18 14:03,513
12/8/18 14:03,503
12/8/18 14:03,499
12/8/18 14:03,517
12/8/18 14:03,491
12/8/18 14:03,516
12/8/18 14:03,504
12/8/18 14:03,508
12/8/18 14:03,518
12/8/18 14:03,498
12/8/18 14:03,521
12/8/18 14:03,495
12/8/18 14:03,490
12/8/18 14:03,510
12/8/18 14:03,490
12/8/18 14:03,517
12/8/18 14:03,496
12/8/18 14:03,496
12/8/18 14:03,510
12/8/18 14:03,488
12/8/18 14:03,516
12/8/18 14:03,498
12/8/18 14:03,500
12/8/18 14:03,510
12/8/18 14:03,487
12/8/18 14:03,511
12/8/18 14:03,481
12/8/18 14:03,494
12/8/18 14:03,514
12/8/18 14:03,495
12/8/18 14:03,522
12/8/18 14:03,501
12/8/18 14:03,508
12/8/18 14:03,515
12/8/18 14:03,494
12/8/18 14:03,520
12/8/18 14:03,497
12/8/18 14:03,509
12/8/18 14:03,514
12/8/18 14:03,493
12/8/18 14:03,519
12/8/18 14:03,494
12/8/18 14:03,509
12/8/18 14:03,511
12/8/18 14:03,494
12/8/18 14:03,521
12/8/18 14:03,494
12/8/18 14:03,510
12/8/18 14:03,510
12/8/18 14:03,495
12/8/18 14:03,518
12/8/18 14:03,491
12/8/18 14:03,511
12/8/18 14:03,507
12/8/18 14:03,495
12/8/18 14:03,518
12/8/18 14:03,490
12/8/18 14:03,512
12/8/18 14:03,506
12/8/18 14:03,496
12/8/18 14:03,519
12/8/18 14:03,491
12/8/18 14:03,514
12/8/18 14:03,503
12/8/18 14:03,495
12/8/18 14:03,519
12/8/18 14:03,491
12/8/18 14:03,516
12/8/18 14:03,505
12/8/18 14:03,498
12/8/18 14:03,518
12/8/18 14:03,492
12/8/18 14:03,516
12/8/18 14:03,502
12/8/18 14:03,499
12/8/18 14:03,519
12/8/18 14:03,490
12/8/18 14:03,516
12/8/18 14:03,500
12/8/18 14:03,499
12/8/18 14:03,516
12/8/18 14:03,489
12/8/18 14:03,516
12/8/18 14:03,499
12/8/18 14:03,501
12/8/18 14:03,514
12/8/18 14:03,491
12/8/18 14:03,517
12/8/18 14:03,496
12/8/18 14:03,501
12/8/18 14:03,513
12/8/18 14:03,485
12/8/18 14:03,507
12/8/18 14:03,495
12/8/18 14:03,505
12/8/18 14:03,514
12/8/18 14:03,492
12/8/18 14:03,521
12/8/18 14:03,500
12/8/18 14:03,507
12/8/18 14:03,516
12/8/18 14:03,494
12/8/18 14:03,520
12/8/18 14:03,514
12/8/18 14:03,504
12/8/18 14:03,519
12/8/18 14:03,506
12/8/18 14:03,517
12/8/18 14:03,485
12/8/18 14:03,501
12/8/18 14:03,503
12/8/18 14:03,489
12/8/18 14:03,519
12/8/18 14:03,495
12/8/18 14:03,514
12/8/18 14:03,510
12/8/18 14:03,489
12/8/18 14:03,511
12/8/18 14:03,486
12/8/18 14:03,503
12/8/18 14:03,502
12/8/18 14:03,490
12/8/18 14:03,516
12/8/18 14:03,489
12/8/18 14:03,509
12/8/18 14:03,504
12/8/18 14:03,493
12/8/18 14:03,519
12/8/18 14:03,492
12/8/18 14:03,512
12/8/18 14:03,507
12/8/18 14:03,496
12/8/18 14:03,520
12/8/18 14:03,489
12/8/18 14:03,514
12/8/18 14:03,505
12/8/18 14:03,497
12/8/18 14:03,520
12/8/18 14:03,491
12/8/18 14:03,516
12/8/18 14:03,504
12/8/18 14:03,498
12/8/18 14:03,518
12/8/18 14:03,492
12/8/18 14:03,518
12/8/18 14:03,502
12/8/18 14:03,499
12/8/18 14:03,517
12/8/18 14:03,491
12/8/18 14:03,518
12/8/18 14:03,499
12/8/18 14:03,500
12/8/18 14:03,516
12/8/18 14:03,490
12/8/18 14:03,518
12/8/18 14:03,497
12/8/18 14:03,490
12/8/18 14:03,513
12/8/18 14:03,494
12/8/18 14:03,521
12/8/18 14:03,502
12/8/18 14:03,507
12/8/18 14:03,517
12/8/18 14:03,493
12/8/18 14:03,520
12/8/18 14:03,497
12/8/18 14:03,504
12/8/18 14:03,515
12/8/18 14:03,492
12/8/18 14:03,520
12/8/18 14:12,502
12/8/18 14:12,502
12/8/18 14:12,503
12/8/18 14:12,504
12/8/18 14:12,505
12/8/18 14:12,503
12/8/18 14:12,504
12/8/18 14:12,503
12/8/18 14:12,503
12/8/18 14:12,506
12/8/18 14:12,502
12/8/18 14:12,504
12/8/18 14:12,505
12/8/18 14:12,506
12/8/18 14:12,507
12/8/18 14:12,505
12/8/18 14:12,506
12/8/18 14:12,503
12/8/18 14:12,504
12/8/18 14:12,506
12/8/18 14:12,504
12/8/18 14:12,506
12/8/18 14:12,503
12/8/18 14:12,505
12/8/18 14:12,506
12/8/18 14:12,504
12/8/18 14:12,502
12/8/18 14:12,502
12/8/18 14:12,499
12/8/18 14:12,497
12/8/18 14:12,506
12/8/18 14:12,510
12/8/18 14:12,508
12/8/18 14:12,510
12/8/18 14:12,509
12/8/18 14:12,507
12/8/18 14:12,508
12/8/18 14:12,508
12/8/18 14:12,507
12/8/18 14:12,506
12/8/18 14:12,506
12/8/18 14:12,506
12/8/18 14:12,505
12/8/18 14:12,505
12/8/18 14:12,505
12/8/18 14:12,504
12/8/18 14:12,504
12/8/18 14:12,504
12/8/18 14:12,503
12/8/18 14:12,502
12/8/18 14:12,503
12/8/18 14:12,506
12/8/18 14:12,503
12/8/18 14:12,503
12/8/18 14:12,504
12/8/18 14:12,505
12/8/18 14:12,503
12/8/18 14:12,504
12/8/18 14:12,504
12/8/18 14:12,502
12/8/18 14:12,504
12/8/18 14:12,505
12/8/18 14:12,502
12/8/18 14:12,504
12/8/18 14:12,503
12/8/18 14:12,502
12/8/18 14:12,507
12/8/18 14:12,503
12/8/18 14:12,505
12/8/18 14:12,502
12/8/18 14:12,503
12/8/18 14:12,504
12/8/18 14:12,504
12/8/18 14:12,505
12/8/18 14:12,504
12/8/18 14:12,523
12/8/18 14:12,502
12/8/18 14:12,514
12/8/18 14:12,514
12/8/18 14:12,498
12/8/18 14:12,495
12/8/18 14:12,500
12/8/18 14:12,498
12/8/18 14:12,505
12/8/18 14:12,506
12/8/18 14:12,506
12/8/18 14:12,504
12/8/18 14:12,503
12/8/18 14:12,503
12/8/18 14:12,500
12/8/18 14:12,500
12/8/18 14:12,498
12/8/18 14:12,500
12/8/18 14:12,501
12/8/18 14:12,501
12/8/18 14:12,504
12/8/18 14:12,502
12/8/18 14:12,504
12/8/18 14:12,505
12/8/18 14:12,506
12/8/18 14:12,504
12/8/18 14:12,505
12/8/18 14:12,505
12/8/18 14:12,505
12/8/18 14:12,505
12/8/18 14:12,506
12/8/18 14:12,504
12/8/18 14:12,505
12/8/18 14:12,507
12/8/18 14:12,505
12/8/18 14:12,506
12/8/18 14:12,506
12/8/18 14:12,506
12/8/18 14:12,507
12/8/18 14:12,504
12/8/18 14:12,505
12/8/18 14:12,506
12/8/18 14:12,504
12/8/18 14:12,509
12/8/18 14:12,506
12/8/18 14:12,506
12/8/18 14:12,505
12/8/18 14:12,503
12/8/18 14:12,506
12/8/18 14:12,505
12/8/18 14:12,506
12/8/18 14:12,505
12/8/18 14:12,504
12/8/18 14:12,505
12/8/18 14:12,503
12/8/18 14:12,507
12/8/18 14:12,504
12/8/18 14:12,504
12/8/18 14:12,505
12/8/18 14:12,505
12/8/18 14:12,505
12/8/18 14:12,503
12/8/18 14:12,504
12/8/18 14:12,506
12/8/18 14:12,504
12/8/18 14:12,506
12/8/18 14:12,503
12/8/18 14:12,505
12/8/18 14:12,504
12/8/18 14:12,503
12/8/18 14:12,505
12/8/18 14:12,504
12/8/18 14:12,503
12/8/18 14:12,506
12/8/18 14:12,504
12/8/18 14:12,505
12/8/18 14:12,505
12/8/18 14:12,503
12/8/18 14:12,504
12/8/18 14:12,504
12/8/18 14:12,504
12/8/18 14:12,501
12/8/18 14:12,504
12/8/18 14:12,503
12/8/18 14:12,502
12/8/18 14:12,504
12/8/18 14:12,491
12/8/18 14:12,498
12/8/18 14:12,503
12/8/18 14:12,502
12/8/18 14:12,511
12/8/18 14:12,507
12/8/18 14:12,508
12/8/18 14:12,510
12/8/18 14:12,506
12/8/18 14:12,508
12/8/18 14:12,506
12/8/18 14:12,506
12/8/18 14:12,505
12/8/18 14:12,503
12/8/18 14:12,511
12/8/18 14:12,509
12/8/18 14:12,507
12/8/18 14:12,517
12/8/18 14:12,507
12/8/18 14:12,498
12/8/18 14:12,496
12/8/18 14:12,501
12/8/18 14:12,502
12/8/18 14:12,502
12/8/18 14:12,505
12/8/18 14:12,501
12/8/18 14:12,499
12/8/18 14:12,505
12/8/18 14:12,499
12/8/18 14:12,500
12/8/18 14:12,503
12/8/18 14:12,506
12/8/18 14:12,503
12/8/18 14:12,503
12/8/18 14:12,503
12/8/18 14:12,500
12/8/18 14:12,503
12/8/18 14:12,500
12/8/18 14:12,500
12/8/18 14:12,503
12/8/18 14:12,502
12/8/18 14:12,504
12/8/18 14:12,503
12/8/18 14:12,505
12/8/18 14:12,504
12/8/18 14:12,502
12/8/18 14:12,506
12/8/18 14:12,505
12/8/18 14:12,505
12/8/18 14:12,507
12/8/18 14:12,505
12/8/18 14:12,505
12/8/18 14:12,507
12/8/18 14:12,504
12/8/18 14:12,506
12/8/18 14:12,503
12/8/18 14:12,508
12/8/18 14:12,505
12/8/18 14:12,505
12/8/18 14:12,507
12/8/18 14:12,502
12/8/18 14:12,494
12/8/18 14:12,499
12/8/18 14:12,507
12/8/18 14:12,511
12/8/18 14:12,511
12/8/18 14:12,512
12/8/18 14:12,507
12/8/18 14:12,510
12/8/18 14:12,509
12/8/18 14:12,505
12/8/18 14:12,507
12/8/18 14:12,506
12/8/18 14:12,506
12/8/18 14:12,504
12/8/18 14:12,504
12/8/18 14:12,504
12/8/18 14:12,502
12/8/18 14:12,505
12/8/18 14:12,505
12/8/18 14:12,502
12/8/18 14:12,506
12/8/18 14:12,504
12/8/18 14:12,505
12/8/18 14:12,506
12/8/18 14:12,502
12/8/18 14:12,501
12/8/18 14:12,504
12/8/18 14:12,504
12/8/18 14:12,505
12/8/18 14:12,504
12/8/18 14:12,505
12/8/18 14:12,502
12/8/18 14:12,505
12/8/18 14:12,503
12/8/18 14:12,504
12/8/18 14:12,503
12/8/18 14:12,502
12/8/18 14:12,504
12/8/18 14:12,503
12/8/18 14:12,503
12/8/18 14:12,506
12/8/18 14:12,504
12/8/18 14:12,505
12/8/18 14:12,503
12/8/18 14:12,503
12/8/18 14:12,505
12/8/18 14:12,503
12/8/18 14:12,506
12/8/18 14:12,503
12/8/18 14:12,504
12/8/18 14:12,504
12/8/18 14:12,504
12/8/18 14:12,499
12/8/18 14:12,494
12/8/18 14:12,504
12/8/18 14:12,510
12/8/18 14:12,526
12/8/18 14:12,508
12/8/18 14:12,518
12/8/18 14:12,513
12/8/18 14:12,501
12/8/18 14:12,498
12/8/18 14:12,493
12/8/18 14:12,494
12/8/18 14:12,503
12/8/18 14:12,507
12/8/18 14:12,507
12/8/18 14:12,508
12/8/18 14:12,506
12/8/18 14:12,505
12/8/18 14:12,503
12/8/18 14:12,500
12/8/18 14:12,501
12/8/18 14:12,498
12/8/18 14:12,500
12/8/18 14:12,501
12/8/18 14:12,500
12/8/18 14:12,503
12/8/18 14:12,502
12/8/18 14:12,503
12/8/18 14:12,503
12/8/18 14:12,502
12/8/18 14:12,505
12/8/18 14:12,506
12/8/18 14:12,507
12/8/18 14:12,505
12/8/18 14:12,504
12/8/18 14:12,506
12/8/18 14:12,504
12/8/18 14:12,506
12/8/18 14:12,506
12/8/18 14:12,505
12/8/18 14:12,507
12/8/18 14:12,504
12/8/18 14:12,505
12/8/18 14:12,505
12/8/18 14:12,505
12/8/18 14:12,506
12/8/18 14:12,504
12/8/18 14:12,507
12/8/18 14:12,506
12/8/18 14:12,505
12/8/18 14:12,495
12/8/18 14:12,499
12/8/18 14:12,507
12/8/18 14:12,508
12/8/18 14:12,509
12/8/18 14:12,509
12/8/18 14:12,507
12/8/18 14:12,509
12/8/18 14:12,506
12/8/18 14:12,506
12/8/18 14:12,506
12/8/18 14:12,505
12/8/18 14:12,507
12/8/18 14:12,503
12/8/18 14:12,505
12/8/18 14:12,506
12/8/18 14:12,504
12/8/18 14:12,506
12/8/18 14:12,505
12/8/18 14:12,504
12/8/18 14:12,505
12/8/18 14:12,503
12/8/18 14:12,505
12/8/18 14:12,504
12/8/18 14:12,503
12/8/18 14:12,505
12/8/18 14:12,503
12/8/18 14:12,505
12/8/18 14:12,504
12/8/18 14:12,504
12/8/18 14:12,507
12/8/18 14:12,502
12/8/18 14:12,501
12/8/18 14:12,502
12/8/18 14:12,504
12/8/18 14:12,505
12/8/18 14:12,504
12/8/18 14:12,506
12/8/18 14:12,502
12/8/18 14:12,504
12/8/18 14:12,503
12/8/18 14:12,503
12/8/18 14:12,506
12/8/18 14:12,503
12/8/18 14:12,503
12/8/18 14:12,506
12/8/18 14:12,503
12/8/18 14:12,506
12/8/18 14:12,503
12/8/18 14:12,503
12/8/18 14:12,505
12/8/18 14:12,505
12/8/18 14:12,505
12/8/18 14:12,511
12/8/18 14:12,511
12/8/18 14:12,507
12/8/18 14:12,515
12/8/18 14:12,507
12/8/18 14:12,497
12/8/18 14:12,495
12/8/18 14:12,498
12/8/18 14:12,501
12/8/18 14:12,503
12/8/18 14:12,497
12/8/18 14:12,498
12/8/18 14:12,501
12/8/18 14:12,504
12/8/18 14:12,507
12/8/18 14:12,501
12/8/18 14:12,504
12/8/18 14:12,501
12/8/18 14:12,501
12/8/18 14:12,504
12/8/18 14:12,503
12/8/18 14:12,503
12/8/18 14:12,504
12/8/18 14:12,504
12/8/18 14:12,506
12/8/18 14:12,504
12/8/18 14:12,506
12/8/18 14:12,505
12/8/18 14:12,504
12/8/18 14:12,507
12/8/18 14:12,504
12/8/18 14:12,505
12/8/18 14:12,505
12/8/18 14:12,505
12/8/18 14:12,507
12/8/18 14:12,503
12/8/18 14:12,506
12/8/18 14:12,503
12/8/18 14:12,506
12/8/18 14:12,507
12/8/18 14:12,504
12/8/18 14:12,507
12/8/18 14:12,503
12/8/18 14:12,503
12/8/18 14:12,501
12/8/18 14:12,506
12/8/18 14:12,509
12/8/18 14:12,495
12/8/18 14:12,500
12/8/18 14:12,507
12/8/18 14:12,508
12/8/18 14:12,510
12/8/18 14:12,508
12/8/18 14:12,509
12/8/18 14:12,507
12/8/18 14:12,505
12/8/18 14:12,507
12/8/18 14:12,505
12/8/18 14:12,506
12/8/18 14:12,505
12/8/18 14:12,503
12/8/18 14:12,506
12/8/18 14:12,505
12/8/18 14:12,505
12/8/18 14:12,505
12/8/18 14:12,504
12/8/18 14:12,505
12/8/18 14:12,504
12/8/18 14:12,504
12/8/18 14:12,504
12/8/18 14:12,503
12/8/18 14:12,505
12/8/18 14:12,505
12/8/18 14:12,505
12/8/18 14:12,504
12/8/18 14:12,502
12/8/18 14:12,504
12/8/18 14:12,502
12/8/18 14:12,505
12/8/18 14:12,503
12/8/18 14:12,504
12/8/18 14:12,505
12/8/18 14:12,501
12/8/18 14:12,505
12/8/18 14:12,503
12/8/18 14:12,503
12/8/18 14:12,505
12/8/18 14:12,502
12/8/18 14:12,504
12/8/18 14:12,503
12/8/18 14:12,504
12/8/18 14:12,504
12/8/18 14:12,504
12/8/18 14:12,505
12/8/18 14:12,503
12/8/18 14:12,505
12/8/18 14:12,504
12/8/18 14:12,503
12/8/18 14:12,505
12/8/18 14:12,505
12/8/18 14:12,525
12/8/18 14:12,501
12/8/18 14:12,508
12/8/18 14:12,517
12/8/18 14:12,500
12/8/18 14:12,495
12/8/18 14:12,500
12/8/18 14:12,503
12/8/18 14:12,504
12/8/18 14:12,491
12/8/18 14:12,500
12/8/18 14:12,507
12/8/18 14:12,509
12/8/18 14:12,510
12/8/18 14:12,506
12/8/18 14:12,503
12/8/18 14:12,498
12/8/18 14:12,499
12/8/18 14:12,502
12/8/18 14:12,502
12/8/18 14:12,502
12/8/18 14:12,503
12/8/18 14:12,502
12/8/18 14:12,504
12/8/18 14:12,503
12/8/18 14:12,505
12/8/18 14:12,503
12/8/18 14:12,504
12/8/18 14:12,506
12/8/18 14:12,503
12/8/18 14:12,506
12/8/18 14:12,504
12/8/18 14:12,504
12/8/18 14:12,505
12/8/18 14:12,505
12/8/18 14:12,506
12/8/18 14:12,505
12/8/18 14:12,504
12/8/18 14:12,507
12/8/18 14:12,503
12/8/18 14:12,505
12/8/18 14:12,506
12/8/18 14:12,505
12/8/18 14:12,508
12/8/18 14:12,505
12/8/18 14:12,507
12/8/18 14:12,505
12/8/18 14:12,505
12/8/18 14:12,507
12/8/18 14:12,501
12/8/18 14:12,492
12/8/18 14:12,503
12/8/18 14:12,507
12/8/18 14:12,510
12/8/18 14:12,508
12/8/18 14:12,509
12/8/18 14:12,508
12/8/18 14:12,506
12/8/18 14:12,507
12/8/18 14:12,506
12/8/18 14:12,506
12/8/18 14:12,506
12/8/18 14:12,506
12/8/18 14:12,504
12/8/18 14:12,505
12/8/18 14:12,505
12/8/18 14:12,504
12/8/18 14:12,504
12/8/18 14:12,504
12/8/18 14:12,502
12/8/18 14:12,506
12/8/18 14:12,503
12/8/18 14:12,504
12/8/18 14:12,505
12/8/18 14:12,503
12/8/18 14:12,506
12/8/18 14:12,502
12/8/18 14:12,504
12/8/18 14:12,505
12/8/18 14:12,502
12/8/18 14:12,503
12/8/18 14:12,502
12/8/18 14:12,504
12/8/18 14:12,504
12/8/18 14:12,502
12/8/18 14:12,504
12/8/18 14:12,502
12/8/18 14:12,505
12/8/18 14:12,504
12/8/18 14:12,503
12/8/18 14:12,505
12/8/18 14:12,503
12/8/18 14:12,505
12/8/18 14:12,505
12/8/18 14:12,504
12/8/18 14:12,497
12/8/18 14:12,491
12/8/18 14:12,503
12/8/18 14:12,507
12/8/18 14:12,510
12/8/18 14:12,511
12/8/18 14:12,526
12/8/18 14:12,505
12/8/18 14:12,516
12/8/18 14:12,518
12/8/18 14:12,503
12/8/18 14:12,493
12/8/18 14:12,500
12/8/18 14:12,502
12/8/18 14:12,504
12/8/18 14:12,507
12/8/18 14:12,500
12/8/18 14:12,497
12/8/18 14:12,498
12/8/18 14:12,502
12/8/18 14:12,504
12/8/18 14:12,502
12/8/18 14:12,504
12/8/18 14:12,502
12/8/18 14:12,499
12/8/18 14:12,503
12/8/18 14:12,502
12/8/18 14:12,501
12/8/18 14:21,502
12/8/18 14:21,503
12/8/18 14:21,501
12/8/18 14:21,503
12/8/18 14:21,502
12/8/18 14:21,503
12/8/18 14:21,503
12/8/18 14:21,502
12/8/18 14:21,503
12/8/18 14:21,501
12/8/18 14:21,502
12/8/18 14:21,504
12/8/18 14:21,503
12/8/18 14:21,502
12/8/18 14:21,502
12/8/18 14:21,504
12/8/18 14:21,503
12/8/18 14:21,503
12/8/18 14:21,505
12/8/18 14:21,504
12/8/18 14:21,503
12/8/18 14:21,505
12/8/18 14:21,523
12/8/18 14:21,501
12/8/18 14:21,496
12/8/18 14:21,510
12/8/18 14:21,504
12/8/18 14:21,501
12/8/18 14:21,502
12/8/18 14:21,503
12/8/18 14:21,508
12/8/18 14:21,509
12/8/18 14:21,502
12/8/18 14:21,504
12/8/18 14:21,505
12/8/18 14:21,503
12/8/18 14:21,507
12/8/18 14:21,507
12/8/18 14:21,508
12/8/18 14:21,502
12/8/18 14:21,501
12/8/18 14:21,501
12/8/18 14:21,498
12/8/18 14:21,501
12/8/18 14:21,497
12/8/18 14:21,499
12/8/18 14:21,500
12/8/18 14:21,502
12/8/18 14:21,502
12/8/18 14:21,502
12/8/18 14:21,504
12/8/18 14:21,506
12/8/18 14:21,505
12/8/18 14:21,505
12/8/18 14:21,505
12/8/18 14:21,506
12/8/18 14:21,505
12/8/18 14:21,505
12/8/18 14:21,507
12/8/18 14:21,505
12/8/18 14:21,507
12/8/18 14:21,506
12/8/18 14:21,504
12/8/18 14:21,508
12/8/18 14:21,504
12/8/18 14:21,506
12/8/18 14:21,505
12/8/18 14:21,505
12/8/18 14:21,507
12/8/18 14:21,502
12/8/18 14:21,502
12/8/18 14:21,506
12/8/18 14:21,505
12/8/18 14:21,496
12/8/18 14:21,499
12/8/18 14:21,509
12/8/18 14:21,509
12/8/18 14:21,509
12/8/18 14:21,509
12/8/18 14:21,509
12/8/18 14:21,509
12/8/18 14:21,507
12/8/18 14:21,504
12/8/18 14:21,507
12/8/18 14:21,504
12/8/18 14:21,507
12/8/18 14:21,504
12/8/18 14:21,505
12/8/18 14:21,507
12/8/18 14:21,503
12/8/18 14:21,505
12/8/18 14:21,503
12/8/18 14:21,503
12/8/18 14:21,505
12/8/18 14:21,503
12/8/18 14:21,503
12/8/18 14:21,503
12/8/18 14:21,505
12/8/18 14:21,505
12/8/18 14:21,503
12/8/18 14:21,504
12/8/18 14:21,503
12/8/18 14:21,503
12/8/18 14:21,505
12/8/18 14:21,503
12/8/18 14:21,504
12/8/18 14:21,503
12/8/18 14:21,503
12/8/18 14:21,503
12/8/18 14:21,502
12/8/18 14:21,503
12/8/18 14:21,503
12/8/18 14:21,504
12/8/18 14:21,504
12/8/18 14:21,504
12/8/18 14:21,504
12/8/18 14:21,503
12/8/18 14:21,506
12/8/18 14:21,506
12/8/18 14:21,503
12/8/18 14:21,505
12/8/18 14:21,502
12/8/18 14:21,504
12/8/18 14:21,507
12/8/18 14:21,518
12/8/18 14:21,507
12/8/18 14:21,514
12/8/18 14:21,510
12/8/18 14:21,498
12/8/18 14:21,498
12/8/18 14:21,502
12/8/18 14:21,495
12/8/18 14:21,497
12/8/18 14:21,503
12/8/18 14:21,505
12/8/18 14:21,507
12/8/18 14:21,506
12/8/18 14:21,501
12/8/18 14:21,498
12/8/18 14:21,502
12/8/18 14:21,504
12/8/18 14:21,504
12/8/18 14:21,503
12/8/18 14:21,503
12/8/18 14:21,503
12/8/18 14:21,503
12/8/18 14:21,503
12/8/18 14:21,504
12/8/18 14:21,504
12/8/18 14:21,502
12/8/18 14:21,503
12/8/18 14:21,503
12/8/18 14:21,506
12/8/18 14:21,505
12/8/18 14:21,506
12/8/18 14:21,508
12/8/18 14:21,505
12/8/18 14:21,507
12/8/18 14:21,506
12/8/18 14:21,505
12/8/18 14:21,493
12/8/18 14:21,498
12/8/18 14:21,507
12/8/18 14:21,509
12/8/18 14:21,511
12/8/18 14:21,507
12/8/18 14:21,503
12/8/18 14:21,509
12/8/18 14:21,508
12/8/18 14:21,509
12/8/18 14:21,508
12/8/18 14:21,505
12/8/18 14:21,507
12/8/18 14:21,505
12/8/18 14:21,505
12/8/18 14:21,506
12/8/18 14:21,505
12/8/18 14:21,507
12/8/18 14:21,504
12/8/18 14:21,505
12/8/18 14:21,504
12/8/18 14:21,505
12/8/18 14:21,505
12/8/18 14:21,504
12/8/18 14:21,505
12/8/18 14:21,505
12/8/18 14:21,504
12/8/18 14:21,506
12/8/18 14:21,504
12/8/18 14:21,505
12/8/18 14:21,504
12/8/18 14:21,505
12/8/18 14:21,504
12/8/18 14:21,503
12/8/18 14:21,505
12/8/18 14:21,504
12/8/18 14:21,503
12/8/18 14:21,504
12/8/18 14:21,503
12/8/18 14:21,505
12/8/18 14:21,505
12/8/18 14:21,503
12/8/18 14:21,505
12/8/18 14:21,503
12/8/18 14:21,505
12/8/18 14:21,503
12/8/18 14:21,503
12/8/18 14:21,504
12/8/18 14:21,503
12/8/18 14:21,503
12/8/18 14:21,504
12/8/18 14:21,503
12/8/18 14:21,504
12/8/18 14:21,503
12/8/18 14:21,506
12/8/18 14:21,505
12/8/18 14:21,503
12/8/18 14:21,503
12/8/18 14:21,503
12/8/18 14:21,505
12/8/18 14:21,503
12/8/18 14:21,504
12/8/18 14:21,505
12/8/18 14:21,503
12/8/18 14:21,521
12/8/18 14:21,501
12/8/18 14:21,506
12/8/18 14:21,517
12/8/18 14:21,505
12/8/18 14:21,499
12/8/18 14:21,497
12/8/18 14:21,500
12/8/18 14:21,504
12/8/18 14:21,503
12/8/18 14:21,501
12/8/18 14:21,500
12/8/18 14:21,498
12/8/18 14:21,493
12/8/18 14:21,503
12/8/18 14:21,507
12/8/18 14:21,507
12/8/18 14:21,506
12/8/18 14:21,506
12/8/18 14:21,505
12/8/18 14:21,503
12/8/18 14:21,502
12/8/18 14:21,504
12/8/18 14:21,504
12/8/18 14:21,504
12/8/18 14:21,505
12/8/18 14:21,503
12/8/18 14:21,505
12/8/18 14:21,505
12/8/18 14:21,503
12/8/18 14:21,505
12/8/18 14:21,503
12/8/18 14:21,505
12/8/18 14:21,504
12/8/18 14:21,504
12/8/18 14:21,506
12/8/18 14:21,505
12/8/18 14:21,506
12/8/18 14:21,504
12/8/18 14:21,503
12/8/18 14:21,506
12/8/18 14:21,506
12/8/18 14:21,507
12/8/18 14:21,506
12/8/18 14:21,503
12/8/18 14:21,505
12/8/18 14:21,499
12/8/18 14:21,503
12/8/18 14:21,506
12/8/18 14:21,507
12/8/18 14:21,507
12/8/18 14:21,506
12/8/18 14:21,507
12/8/18 14:21,506
12/8/18 14:21,505
12/8/18 14:21,506
12/8/18 14:21,504
12/8/18 14:21,507
12/8/18 14:21,505
12/8/18 14:21,504
12/8/18 14:21,505
12/8/18 14:21,504
12/8/18 14:21,505
12/8/18 14:21,504
12/8/18 14:21,504
12/8/18 14:21,505
12/8/18 14:21,503
12/8/18 14:21,506
12/8/18 14:21,505
12/8/18 14:21,491
12/8/18 14:21,499
12/8/18 14:21,505
12/8/18 14:21,508
12/8/18 14:21,505
12/8/18 14:21,507
12/8/18 14:21,509
12/8/18 14:21,506
12/8/18 14:21,507
12/8/18 14:21,504
12/8/18 14:21,505
12/8/18 14:21,505
12/8/18 14:21,505
12/8/18 14:21,506
12/8/18 14:21,503
12/8/18 14:21,503
12/8/18 14:21,504
12/8/18 14:21,503
12/8/18 14:21,505
12/8/18 14:21,503
12/8/18 14:21,504
12/8/18 14:21,503
12/8/18 14:21,503
12/8/18 14:21,505
12/8/18 14:21,503
12/8/18 14:21,504
12/8/18 14:21,505
12/8/18 14:21,503
12/8/18 14:21,506
12/8/18 14:21,502
12/8/18 14:21,509
12/8/18 14:21,510
12/8/18 14:21,503
12/8/18 14:21,515
12/8/18 14:21,510
12/8/18 14:21,498
12/8/18 14:21,496
12/8/18 14:21,506
12/8/18 14:21,502
12/8/18 14:21,498
12/8/18 14:21,499
12/8/18 14:21,499
12/8/18 14:21,502
12/8/18 14:21,504
12/8/18 14:21,504
12/8/18 14:21,505
12/8/18 14:21,503
12/8/18 14:21,501
12/8/18 14:21,501
12/8/18 14:21,500
12/8/18 14:21,497
12/8/18 14:21,489
12/8/18 14:21,496
12/8/18 14:21,507
12/8/18 14:21,505
12/8/18 14:21,511
12/8/18 14:21,510
12/8/18 14:21,511
12/8/18 14:21,511
12/8/18 14:21,507
12/8/18 14:21,509
12/8/18 14:21,507
12/8/18 14:21,507
12/8/18 14:21,506
12/8/18 14:21,504
12/8/18 14:21,507
12/8/18 14:21,506
12/8/18 14:21,506
12/8/18 14:21,505
12/8/18 14:21,504
12/8/18 14:21,506
12/8/18 14:21,503
12/8/18 14:21,505
12/8/18 14:21,505
12/8/18 14:21,505
12/8/18 14:21,506
12/8/18 14:21,504
12/8/18 14:21,505
12/8/18 14:21,505
12/8/18 14:21,505
12/8/18 14:21,505
12/8/18 14:21,504
12/8/18 14:21,506
12/8/18 14:21,505
12/8/18 14:21,503
12/8/18 14:21,505
12/8/18 14:21,503
12/8/18 14:21,506
12/8/18 14:21,505
12/8/18 14:21,504
12/8/18 14:21,505
12/8/18 14:21,505
12/8/18 14:21,505
12/8/18 14:21,504
12/8/18 14:21,504
12/8/18 14:21,506
12/8/18 14:21,502
12/8/18 14:21,505
12/8/18 14:21,506
12/8/18 14:21,502
12/8/18 14:21,505
12/8/18 14:21,503
12/8/18 14:21,505
12/8/18 14:21,505
12/8/18 14:21,504
12/8/18 14:21,504
12/8/18 14:21,503
12/8/18 14:21,503
12/8/18 14:21,502
12/8/18 14:21,504
12/8/18 14:21,504
12/8/18 14:21,502
12/8/18 14:21,504
12/8/18 14:21,504
12/8/18 14:21,504
12/8/18 14:21,505
12/8/18 14:21,503
12/8/18 14:21,504
12/8/18 14:21,504
12/8/18 14:21,504
12/8/18 14:21,504
12/8/18 14:21,502
12/8/18 14:21,505
12/8/18 14:21,499
12/8/18 14:21,497
12/8/18 14:21,504
12/8/18 14:21,500
12/8/18 14:21,509
12/8/18 14:21,508
12/8/18 14:21,509
12/8/18 14:21,521
12/8/18 14:21,507
12/8/18 14:21,512
12/8/18 14:21,519
12/8/18 14:21,506
12/8/18 14:21,496
12/8/18 14:21,500
12/8/18 14:21,498
12/8/18 14:21,501
12/8/18 14:21,502
12/8/18 14:21,499
12/8/18 14:21,501
12/8/18 14:21,505
12/8/18 14:21,505
12/8/18 14:21,505
12/8/18 14:21,504
12/8/18 14:21,502
12/8/18 14:21,503
12/8/18 14:21,499
12/8/18 14:21,501
12/8/18 14:21,502
12/8/18 14:21,502
12/8/18 14:21,504
12/8/18 14:21,501
12/8/18 14:21,503
12/8/18 14:21,504
12/8/18 14:21,503
12/8/18 14:21,504
12/8/18 14:21,502
12/8/18 14:21,492
12/8/18 14:21,502
12/8/18 14:21,506
12/8/18 14:21,510
12/8/18 14:21,509
12/8/18 14:21,510
12/8/18 14:21,508
12/8/18 14:21,507
12/8/18 14:21,508
12/8/18 14:21,505
12/8/18 14:21,506
12/8/18 14:21,507
12/8/18 14:21,505
12/8/18 14:21,506
12/8/18 14:21,505
12/8/18 14:21,506
12/8/18 14:21,505
12/8/18 14:21,506
12/8/18 14:21,506
12/8/18 14:21,503
12/8/18 14:21,504
12/8/18 14:21,504
12/8/18 14:21,505
12/8/18 14:21,506
12/8/18 14:21,504
12/8/18 14:21,504
12/8/18 14:21,504
12/8/18 14:21,504
12/8/18 14:21,504
12/8/18 14:21,504
12/8/18 14:21,505
12/8/18 14:21,504
12/8/18 14:21,505
12/8/18 14:21,505
12/8/18 14:21,505
12/8/18 14:21,507
12/8/18 14:21,504
12/8/18 14:21,506
12/8/18 14:21,504
12/8/18 14:21,502
12/8/18 14:21,506
12/8/18 14:21,500
12/8/18 14:21,502
12/8/18 14:21,504
12/8/18 14:21,506
12/8/18 14:21,508
12/8/18 14:21,490
12/8/18 14:21,499
12/8/18 14:21,506
12/8/18 14:21,507
12/8/18 14:21,509
12/8/18 14:21,507
12/8/18 14:21,507
12/8/18 14:21,506
12/8/18 14:21,505
12/8/18 14:21,506
12/8/18 14:21,503
12/8/18 14:21,505
12/8/18 14:21,504
12/8/18 14:21,502
12/8/18 14:21,505
12/8/18 14:21,503
12/8/18 14:21,504
12/8/18 14:21,503
12/8/18 14:21,504
12/8/18 14:21,507
12/8/18 14:21,503
12/8/18 14:21,505
12/8/18 14:21,504
12/8/18 14:21,503
12/8/18 14:21,504
12/8/18 14:21,502
12/8/18 14:21,504
12/8/18 14:21,504
12/8/18 14:21,505
12/8/18 14:21,525
12/8/18 14:21,498
12/8/18 14:21,515
12/8/18 14:21,515
12/8/18 14:21,498
12/8/18 14:21,497
12/8/18 14:21,498
12/8/18 14:21,498
12/8/18 14:21,497
12/8/18 14:21,501
12/8/18 14:21,503
12/8/18 14:21,503
12/8/18 14:21,505
12/8/18 14:21,504
12/8/18 14:21,506
12/8/18 14:21,507
12/8/18 14:21,502
12/8/18 14:21,504
12/8/18 14:21,502
12/8/18 14:21,503
12/8/18 14:21,503
12/8/18 14:21,502
12/8/18 14:21,502
12/8/18 14:21,501
12/8/18 14:21,503
12/8/18 14:21,503
12/8/18 14:21,503
12/8/18 14:21,502
12/8/18 14:21,491
12/8/18 14:21,503
12/8/18 14:21,510
12/8/18 14:21,508
12/8/18 14:21,510
12/8/18 14:21,506
12/8/18 14:21,507
12/8/18 14:21,505
12/8/18 14:21,505
12/8/18 14:21,510
12/8/18 14:21,507
12/8/18 14:21,507
12/8/18 14:21,507
12/8/18 14:21,506
12/8/18 14:21,507
12/8/18 14:21,504
12/8/18 14:21,505
12/8/18 14:21,505
12/8/18 14:21,505
12/8/18 14:21,506
12/8/18 14:21,504
12/8/18 14:21,506
12/8/18 14:21,504
12/8/18 14:21,504
12/8/18 14:21,504
12/8/18 14:21,502
12/8/18 14:21,506
12/8/18 14:21,503
12/8/18 14:21,504
12/8/18 14:21,506
12/8/18 14:21,505
12/8/18 14:21,505
12/8/18 14:21,505
12/8/18 14:21,505
12/8/18 14:21,506
12/8/18 14:21,505
12/8/18 14:21,505
12/8/18 14:21,505
12/8/18 14:21,504
12/8/18 14:21,505
12/8/18 14:21,505
12/8/18 14:21,503
12/8/18 14:21,501
12/8/18 14:21,490
12/8/18 14:21,499
12/8/18 14:30,506
12/8/18 14:30,505
12/8/18 14:30,507
12/8/18 14:30,503
12/8/18 14:30,507
12/8/18 14:30,502
12/8/18 14:30,506
12/8/18 14:30,506
12/8/18 14:30,503
12/8/18 14:30,505
12/8/18 14:30,504
12/8/18 14:30,505
12/8/18 14:30,506
12/8/18 14:30,503
12/8/18 14:30,506
12/8/18 14:30,504
12/8/18 14:30,506
12/8/18 14:30,505
12/8/18 14:30,504
12/8/18 14:30,505
12/8/18 14:30,504
12/8/18 14:30,504
12/8/18 14:30,505
12/8/18 14:30,504
12/8/18 14:30,505
12/8/18 14:30,503
12/8/18 14:30,506
12/8/18 14:30,506
12/8/18 14:30,503
12/8/18 14:30,505
12/8/18 14:30,504
12/8/18 14:30,507
12/8/18 14:30,506
12/8/18 14:30,503
12/8/18 14:30,505
12/8/18 14:30,503
12/8/18 14:30,504
12/8/18 14:30,506
12/8/18 14:30,505
12/8/18 14:30,505
12/8/18 14:30,504
12/8/18 14:30,507
12/8/18 14:30,504
12/8/18 14:30,505
12/8/18 14:30,506
12/8/18 14:30,503
12/8/18 14:30,502
12/8/18 14:30,501
12/8/18 14:30,507
12/8/18 14:30,502
12/8/18 14:30,495
12/8/18 14:30,507
12/8/18 14:30,506
12/8/18 14:30,509
12/8/18 14:30,508
12/8/18 14:30,505
12/8/18 14:30,508
12/8/18 14:30,505
12/8/18 14:30,506
12/8/18 14:30,505
12/8/18 14:30,504
12/8/18 14:30,505
12/8/18 14:30,503
12/8/18 14:30,505
12/8/18 14:30,505
12/8/18 14:30,502
12/8/18 14:30,504
12/8/18 14:30,504
12/8/18 14:30,503
12/8/18 14:30,504
12/8/18 14:30,503
12/8/18 14:30,505
12/8/18 14:30,504
12/8/18 14:30,504
12/8/18 14:30,504
12/8/18 14:30,503
12/8/18 14:30,508
12/8/18 14:30,519
12/8/18 14:30,501
12/8/18 14:30,508
12/8/18 14:30,515
12/8/18 14:30,505
12/8/18 14:30,498
12/8/18 14:30,498
12/8/18 14:30,502
12/8/18 14:30,503
12/8/18 14:30,501
12/8/18 14:30,499
12/8/18 14:30,502
12/8/18 14:30,502
12/8/18 14:30,499
12/8/18 14:30,503
12/8/18 14:30,505
12/8/18 14:30,506
12/8/18 14:30,504
12/8/18 14:30,503
12/8/18 14:30,502
12/8/18 14:30,501
12/8/18 14:30,503
12/8/18 14:30,503
12/8/18 14:30,495
12/8/18 14:30,495
12/8/18 14:30,504
12/8/18 14:30,507
12/8/18 14:30,508
12/8/18 14:30,507
12/8/18 14:30,508
12/8/18 14:30,507
12/8/18 14:30,509
12/8/18 14:30,507
12/8/18 14:30,507
12/8/18 14:30,506
12/8/18 14:30,506
12/8/18 14:30,506
12/8/18 14:30,507
12/8/18 14:30,506
12/8/18 14:30,506
12/8/18 14:30,504
12/8/18 14:30,506
12/8/18 14:30,504
12/8/18 14:30,505
12/8/18 14:30,505
12/8/18 14:30,503
12/8/18 14:30,505
12/8/18 14:30,500
12/8/18 14:30,503
12/8/18 14:30,508
12/8/18 14:30,506
12/8/18 14:30,507
12/8/18 14:30,503
12/8/18 14:30,507
12/8/18 14:30,506
12/8/18 14:30,505
12/8/18 14:30,505
12/8/18 14:30,503
12/8/18 14:30,504
12/8/18 14:30,502
12/8/18 14:30,491
12/8/18 14:30,505
12/8/18 14:30,508
12/8/18 14:30,511
12/8/18 14:30,507
12/8/18 14:30,507
12/8/18 14:30,509
12/8/18 14:30,505
12/8/18 14:30,507
12/8/18 14:30,507
12/8/18 14:30,505
12/8/18 14:30,506
12/8/18 14:30,504
12/8/18 14:30,503
12/8/18 14:30,503
12/8/18 14:30,503
12/8/18 14:30,504
12/8/18 14:30,504
12/8/18 14:30,504
12/8/18 14:30,503
12/8/18 14:30,503
12/8/18 14:30,504
12/8/18 14:30,503
12/8/18 14:30,504
12/8/18 14:30,503
12/8/18 14:30,502
12/8/18 14:30,505
12/8/18 14:30,503
12/8/18 14:30,504
12/8/18 14:30,503
12/8/18 14:30,504
12/8/18 14:30,505
12/8/18 14:30,501
12/8/18 14:30,506
12/8/18 14:30,504
12/8/18 14:30,504
12/8/18 14:30,506
12/8/18 14:30,502
12/8/18 14:30,505
12/8/18 14:30,505
12/8/18 14:30,500
12/8/18 14:30,504
12/8/18 14:30,498
12/8/18 14:30,503
12/8/18 14:30,521
12/8/18 14:30,511
12/8/18 14:30,504
12/8/18 14:30,504
12/8/18 14:30,506
12/8/18 14:30,499
12/8/18 14:30,501
12/8/18 14:30,503
12/8/18 14:30,503
12/8/18 14:30,504
12/8/18 14:30,501
12/8/18 14:30,503
12/8/18 14:30,505
12/8/18 14:30,506
12/8/18 14:30,505
12/8/18 14:30,503
12/8/18 14:30,502
12/8/18 14:30,502
12/8/18 14:30,502
12/8/18 14:30,503
12/8/18 14:30,502
12/8/18 14:30,503
12/8/18 14:30,504
12/8/18 14:30,503
12/8/18 14:30,504
12/8/18 14:30,502
12/8/18 14:30,506
12/8/18 14:30,505
12/8/18 14:30,503
12/8/18 14:30,505
12/8/18 14:30,503
12/8/18 14:30,507
12/8/18 14:30,505
12/8/18 14:30,508
12/8/18 14:30,506
12/8/18 14:30,502
12/8/18 14:30,506
12/8/18 14:30,505
12/8/18 14:30,506
12/8/18 14:30,506
12/8/18 14:30,506
12/8/18 14:30,507
12/8/18 14:30,506
12/8/18 14:30,506
12/8/18 14:30,505
12/8/18 14:30,503
12/8/18 14:30,507
12/8/18 14:30,496
12/8/18 14:30,494
12/8/18 14:30,506
12/8/18 14:30,507
12/8/18 14:30,509
12/8/18 14:30,508
12/8/18 14:30,508
12/8/18 14:30,509
12/8/18 14:30,507
12/8/18 14:30,508
12/8/18 14:30,505
12/8/18 14:30,506
12/8/18 14:30,506
12/8/18 14:30,504
12/8/18 14:30,504
12/8/18 14:30,503
12/8/18 14:30,504
12/8/18 14:30,506
12/8/18 14:30,502
12/8/18 14:30,504
12/8/18 14:30,504
12/8/18 14:30,504
12/8/18 14:30,506
12/8/18 14:30,502
12/8/18 14:30,505
12/8/18 14:30,504
12/8/18 14:30,506
12/8/18 14:30,503
12/8/18 14:30,504
12/8/18 14:30,504
12/8/18 14:30,504
12/8/18 14:30,503
12/8/18 14:30,502
12/8/18 14:30,502
12/8/18 14:30,504
12/8/18 14:30,502
12/8/18 14:30,504
12/8/18 14:30,504
12/8/18 14:30,503
12/8/18 14:30,505
12/8/18 14:30,502
12/8/18 14:30,496
12/8/18 14:30,489
12/8/18 14:30,503
12/8/18 14:30,509
12/8/18 14:30,509
12/8/18 14:30,509
12/8/18 14:30,509
12/8/18 14:30,507
12/8/18 14:30,509
12/8/18 14:30,508
12/8/18 14:30,506
12/8/18 14:30,506
12/8/18 14:30,524
12/8/18 14:30,500
12/8/18 14:30,511
12/8/18 14:30,516
12/8/18 14:30,500
12/8/18 14:30,496
12/8/18 14:30,498
12/8/18 14:30,503
12/8/18 14:30,503
12/8/18 14:30,501
12/8/18 14:30,505
12/8/18 14:30,502
12/8/18 14:30,503
12/8/18 14:30,497
12/8/18 14:30,497
12/8/18 14:30,500
12/8/18 14:30,502
12/8/18 14:30,501
12/8/18 14:30,502
12/8/18 14:30,502
12/8/18 14:30,504
12/8/18 14:30,503
12/8/18 14:30,502
12/8/18 14:30,504
12/8/18 14:30,502
12/8/18 14:30,505
12/8/18 14:30,507
12/8/18 14:30,505
12/8/18 14:30,506
12/8/18 14:30,503
12/8/18 14:30,506
12/8/18 14:30,506
12/8/18 14:30,505
12/8/18 14:30,506
12/8/18 14:30,502
12/8/18 14:30,506
12/8/18 14:30,507
12/8/18 14:30,503
12/8/18 14:30,506
12/8/18 14:30,505
12/8/18 14:30,506
12/8/18 14:30,505
12/8/18 14:30,503
12/8/18 14:30,506
12/8/18 14:30,506
12/8/18 14:30,506
12/8/18 14:30,505
12/8/18 14:30,503
12/8/18 14:30,506
12/8/18 14:30,505
12/8/18 14:30,507
12/8/18 14:30,504
12/8/18 14:30,504
12/8/18 14:30,506
12/8/18 14:30,504
12/8/18 14:30,506
12/8/18 14:30,506
12/8/18 14:30,505
12/8/18 14:30,504
12/8/18 14:30,492
12/8/18 14:30,493
12/8/18 14:30,507
12/8/18 14:30,508
12/8/18 14:30,511
12/8/18 14:30,510
12/8/18 14:30,511
12/8/18 14:30,508
12/8/18 14:30,506
12/8/18 14:30,507
12/8/18 14:30,503
12/8/18 14:30,505
12/8/18 14:30,504
12/8/18 14:30,502
12/8/18 14:30,505
12/8/18 14:30,504
12/8/18 14:30,503
12/8/18 14:30,506
12/8/18 14:30,505
12/8/18 14:30,505
12/8/18 14:30,502
12/8/18 14:30,503
12/8/18 14:30,504
12/8/18 14:30,504
12/8/18 14:30,504
12/8/18 14:30,504
12/8/18 14:30,503
12/8/18 14:30,502
12/8/18 14:30,503
12/8/18 14:30,505
12/8/18 14:30,501
12/8/18 14:30,504
12/8/18 14:30,504
12/8/18 14:30,504
12/8/18 14:30,506
12/8/18 14:30,504
12/8/18 14:30,505
12/8/18 14:30,502
12/8/18 14:30,504
12/8/18 14:30,504
12/8/18 14:30,505
12/8/18 14:30,505
12/8/18 14:30,503
12/8/18 14:30,504
12/8/18 14:30,502
12/8/18 14:30,516
12/8/18 14:30,490
12/8/18 14:30,513
12/8/18 14:30,518
12/8/18 14:30,504
12/8/18 14:30,501
12/8/18 14:30,504
12/8/18 14:30,501
12/8/18 14:30,505
12/8/18 14:30,503
12/8/18 14:30,502
12/8/18 14:30,505
12/8/18 14:30,504
12/8/18 14:30,504
12/8/18 14:30,505
12/8/18 14:30,501
12/8/18 14:30,502
12/8/18 14:30,501
12/8/18 14:30,503
12/8/18 14:30,502
12/8/18 14:30,501
12/8/18 14:30,503
12/8/18 14:30,500
12/8/18 14:30,505
12/8/18 14:30,503
12/8/18 14:30,502
12/8/18 14:30,505
12/8/18 14:30,504
12/8/18 14:30,504
12/8/18 14:30,505
12/8/18 14:30,507
12/8/18 14:30,506
12/8/18 14:30,504
12/8/18 14:30,506
12/8/18 14:30,506
12/8/18 14:30,505
12/8/18 14:30,506
12/8/18 14:30,505
12/8/18 14:30,505
12/8/18 14:30,506
12/8/18 14:30,505
12/8/18 14:30,504
12/8/18 14:30,504
12/8/18 14:30,505
12/8/18 14:30,507
12/8/18 14:30,501
12/8/18 14:30,491
12/8/18 14:30,500
12/8/18 14:30,509
12/8/18 14:30,509
12/8/18 14:30,510
12/8/18 14:30,510
12/8/18 14:30,508
12/8/18 14:30,509
12/8/18 14:30,505
12/8/18 14:30,506
12/8/18 14:30,505
12/8/18 14:30,504
12/8/18 14:30,505
12/8/18 14:30,505
12/8/18 14:30,503
12/8/18 14:30,504
12/8/18 14:30,503
12/8/18 14:30,506
12/8/18 14:30,506
12/8/18 14:30,504
12/8/18 14:30,505
12/8/18 14:30,504
12/8/18 14:30,505
12/8/18 14:30,502
12/8/18 14:30,505
12/8/18 14:30,504
12/8/18 14:30,504
12/8/18 14:30,504
12/8/18 14:30,503
12/8/18 14:30,505
12/8/18 14:30,504
12/8/18 14:30,501
12/8/18 14:30,505
12/8/18 14:30,504
12/8/18 14:30,505
12/8/18 14:30,505
12/8/18 14:30,503
12/8/18 14:30,504
12/8/18 14:30,502
12/8/18 14:30,504
12/8/18 14:30,502
12/8/18 14:30,503
12/8/18 14:30,506
12/8/18 14:30,502
12/8/18 14:30,503
12/8/18 14:30,504
12/8/18 14:30,505
12/8/18 14:30,506
12/8/18 14:30,503
12/8/18 14:30,504
12/8/18 14:30,503
12/8/18 14:30,501
12/8/18 14:30,502
12/8/18 14:30,505
12/8/18 14:30,524
12/8/18 14:30,486
12/8/18 14:30,506
12/8/18 14:30,522
12/8/18 14:30,506
12/8/18 14:30,505
12/8/18 14:30,507
12/8/18 14:30,507
12/8/18 14:30,503
12/8/18 14:30,500
12/8/18 14:30,502
12/8/18 14:30,502
12/8/18 14:30,504
12/8/18 14:30,504
12/8/18 14:30,503
12/8/18 14:30,503
12/8/18 14:30,501
12/8/18 14:30,500
12/8/18 14:30,501
12/8/18 14:30,499
12/8/18 14:30,503
12/8/18 14:30,501
12/8/18 14:30,503
12/8/18 14:30,502
12/8/18 14:30,503
12/8/18 14:30,503
12/8/18 14:30,505
12/8/18 14:30,505
12/8/18 14:30,505
12/8/18 14:30,505
12/8/18 14:30,507
12/8/18 14:30,504
12/8/18 14:30,504
12/8/18 14:30,505
12/8/18 14:30,505
12/8/18 14:30,506
12/8/18 14:30,506
12/8/18 14:30,506
12/8/18 14:30,505
12/8/18 14:30,506
12/8/18 14:30,506
12/8/18 14:30,504
12/8/18 14:30,506
12/8/18 14:30,505
12/8/18 14:30,504
12/8/18 14:30,505
12/8/18 14:30,505
12/8/18 14:30,505
12/8/18 14:30,505
12/8/18 14:30,504
12/8/18 14:30,503
12/8/18 14:30,500
12/8/18 14:30,492
12/8/18 14:30,504
12/8/18 14:30,508
12/8/18 14:30,512
12/8/18 14:30,507
12/8/18 14:30,507
12/8/18 14:30,508
12/8/18 14:30,508
12/8/18 14:30,507
12/8/18 14:30,506
12/8/18 14:30,506
12/8/18 14:30,505
12/8/18 14:30,504
12/8/18 14:30,504
12/8/18 14:30,502
12/8/18 14:30,503
12/8/18 14:30,503
12/8/18 14:30,503
12/8/18 14:30,505
12/8/18 14:30,502
12/8/18 14:30,505
12/8/18 14:30,503
12/8/18 14:30,503
12/8/18 14:30,504
12/8/18 14:30,505
12/8/18 14:30,504
12/8/18 14:30,503
12/8/18 14:30,504
12/8/18 14:30,504
12/8/18 14:30,502
12/8/18 14:30,506
12/8/18 14:30,502
12/8/18 14:30,503
12/8/18 14:30,503
12/8/18 14:30,503
12/8/18 14:30,504
12/8/18 14:30,502
12/8/18 14:30,504
12/8/18 14:30,504
12/8/18 14:30,504
12/8/18 14:30,505
12/8/18 14:30,503
12/8/18 14:30,505
12/8/18 14:30,505
12/8/18 14:30,505
12/8/18 14:30,505
12/8/18 14:30,504
12/8/18 14:30,504
12/8/18 14:30,514
12/8/18 14:30,508
12/8/18 14:30,508
12/8/18 14:30,514
12/8/18 14:30,503
12/8/18 14:30,497
12/8/18 14:30,499
12/8/18 14:30,498
12/8/18 14:30,500
12/8/18 14:30,504
12/8/18 14:30,500
12/8/18 14:30,502
12/8/18 14:30,507
12/8/18 14:30,502
12/8/18 14:30,506
12/8/18 14:39,493
12/8/18 14:39,491
12/8/18 14:39,515
12/8/18 14:39,499
12/8/18 14:39,499
12/8/18 14:39,515
12/8/18 14:39,490
12/8/18 14:39,516
12/8/18 14:39,495
12/8/18 14:39,489
12/8/18 14:39,514
12/8/18 14:39,492
12/8/18 14:39,521
12/8/18 14:39,505
12/8/18 14:39,509
12/8/18 14:39,517
12/8/18 14:39,495
12/8/18 14:39,519
12/8/18 14:39,499
12/8/18 14:39,506
12/8/18 14:39,513
12/8/18 14:39,491
12/8/18 14:39,517
12/8/18 14:39,495
12/8/18 14:39,503
12/8/18 14:39,512
12/8/18 14:39,491
12/8/18 14:39,519
12/8/18 14:39,497
12/8/18 14:39,506
12/8/18 14:39,511
12/8/18 14:39,494
12/8/18 14:39,518
12/8/18 14:39,492
12/8/18 14:39,507
12/8/18 14:39,509
12/8/18 14:39,493
12/8/18 14:39,519
12/8/18 14:39,493
12/8/18 14:39,509
12/8/18 14:39,508
12/8/18 14:39,494
12/8/18 14:39,516
12/8/18 14:39,493
12/8/18 14:39,510
12/8/18 14:39,508
12/8/18 14:39,494
12/8/18 14:39,518
12/8/18 14:39,491
12/8/18 14:39,511
12/8/18 14:39,503
12/8/18 14:39,495
12/8/18 14:39,517
12/8/18 14:39,491
12/8/18 14:39,514
12/8/18 14:39,502
12/8/18 14:39,485
12/8/18 14:39,509
12/8/18 14:39,492
12/8/18 14:39,517
12/8/18 14:39,508
12/8/18 14:39,503
12/8/18 14:39,521
12/8/18 14:39,510
12/8/18 14:39,515
12/8/18 14:39,511
12/8/18 14:39,510
12/8/18 14:39,511
12/8/18 14:39,483
12/8/18 14:39,511
12/8/18 14:39,493
12/8/18 14:39,501
12/8/18 14:39,515
12/8/18 14:39,491
12/8/18 14:39,517
12/8/18 14:39,499
12/8/18 14:39,500
12/8/18 14:39,511
12/8/18 14:39,488
12/8/18 14:39,512
12/8/18 14:39,493
12/8/18 14:39,498
12/8/18 14:39,509
12/8/18 14:39,490
12/8/18 14:39,515
12/8/18 14:39,493
12/8/18 14:39,504
12/8/18 14:39,509
12/8/18 14:39,492
12/8/18 14:39,517
12/8/18 14:39,494
12/8/18 14:39,501
12/8/18 14:39,509
12/8/18 14:39,495
12/8/18 14:39,519
12/8/18 14:39,482
12/8/18 14:39,507
12/8/18 14:39,517
12/8/18 14:39,501
12/8/18 14:39,525
12/8/18 14:39,499
12/8/18 14:39,513
12/8/18 14:39,513
12/8/18 14:39,497
12/8/18 14:39,520
12/8/18 14:39,494
12/8/18 14:39,511
12/8/18 14:39,508
12/8/18 14:39,496
12/8/18 14:39,517
12/8/18 14:39,492
12/8/18 14:39,512
12/8/18 14:39,509
12/8/18 14:39,494
12/8/18 14:39,517
12/8/18 14:39,492
12/8/18 14:39,512
12/8/18 14:39,506
12/8/18 14:39,496
12/8/18 14:39,517
12/8/18 14:39,491
12/8/18 14:39,513
12/8/18 14:39,504
12/8/18 14:39,500
12/8/18 14:39,515
12/8/18 14:39,491
12/8/18 14:39,516
12/8/18 14:39,502
12/8/18 14:39,498
12/8/18 14:39,517
12/8/18 14:39,491
12/8/18 14:39,516
12/8/18 14:39,501
12/8/18 14:39,499
12/8/18 14:39,516
12/8/18 14:39,490
12/8/18 14:39,517
12/8/18 14:39,500
12/8/18 14:39,501
12/8/18 14:39,514
12/8/18 14:39,490
12/8/18 14:39,516
12/8/18 14:39,496
12/8/18 14:39,502
12/8/18 14:39,514
12/8/18 14:39,491
12/8/18 14:39,516
12/8/18 14:39,496
12/8/18 14:39,502
12/8/18 14:39,512
12/8/18 14:39,491
12/8/18 14:39,503
12/8/18 14:39,493
12/8/18 14:39,501
12/8/18 14:39,516
12/8/18 14:39,499
12/8/18 14:39,524
12/8/18 14:39,498
12/8/18 14:39,510
12/8/18 14:39,514
12/8/18 14:39,498
12/8/18 14:39,537
12/8/18 14:39,490
12/8/18 14:39,516
12/8/18 14:39,517
12/8/18 14:39,491
12/8/18 14:39,509
12/8/18 14:39,486
12/8/18 14:39,509
12/8/18 14:39,509
12/8/18 14:39,492
12/8/18 14:39,519
12/8/18 14:39,490
12/8/18 14:39,503
12/8/18 14:39,499
12/8/18 14:39,490
12/8/18 14:39,515
12/8/18 14:39,489
12/8/18 14:39,509
12/8/18 14:39,503
12/8/18 14:39,494
12/8/18 14:39,517
12/8/18 14:39,489
12/8/18 14:39,514
12/8/18 14:39,502
12/8/18 14:39,498
12/8/18 14:39,516
12/8/18 14:39,491
12/8/18 14:39,515
12/8/18 14:39,505
12/8/18 14:39,498
12/8/18 14:39,508
12/8/18 14:39,477
12/8/18 14:39,519
12/8/18 14:39,509
12/8/18 14:39,508
12/8/18 14:39,523
12/8/18 14:39,496
12/8/18 14:39,520
12/8/18 14:39,504
12/8/18 14:39,503
12/8/18 14:39,516
12/8/18 14:39,493
12/8/18 14:39,518
12/8/18 14:39,498
12/8/18 14:39,503
12/8/18 14:39,514
12/8/18 14:39,490
12/8/18 14:39,519
12/8/18 14:39,497
12/8/18 14:39,503
12/8/18 14:39,511
12/8/18 14:39,491
12/8/18 14:39,517
12/8/18 14:39,495
12/8/18 14:39,505
12/8/18 14:39,514
12/8/18 14:39,491
12/8/18 14:39,518
12/8/18 14:39,493
12/8/18 14:39,506
12/8/18 14:39,510
12/8/18 14:39,493
12/8/18 14:39,521
12/8/18 14:39,495
12/8/18 14:39,506
12/8/18 14:39,509
12/8/18 14:39,493
12/8/18 14:39,517
12/8/18 14:39,492
12/8/18 14:39,503
12/8/18 14:39,494
12/8/18 14:39,494
12/8/18 14:39,522
12/8/18 14:39,497
12/8/18 14:39,513
12/8/18 14:39,506
12/8/18 14:39,500
12/8/18 14:39,521
12/8/18 14:39,495
12/8/18 14:39,513
12/8/18 14:39,508
12/8/18 14:39,498
12/8/18 14:39,519
12/8/18 14:39,491
12/8/18 14:39,512
12/8/18 14:39,503
12/8/18 14:39,495
12/8/18 14:39,515
12/8/18 14:39,490
12/8/18 14:39,514
12/8/18 14:39,501
12/8/18 14:39,499
12/8/18 14:39,513
12/8/18 14:39,489
12/8/18 14:39,515
12/8/18 14:39,500
12/8/18 14:39,499
12/8/18 14:39,515
12/8/18 14:39,497
12/8/18 14:39,522
12/8/18 14:39,500
12/8/18 14:39,511
12/8/18 14:39,518
12/8/18 14:39,485
12/8/18 14:39,511
12/8/18 14:39,493
12/8/18 14:39,496
12/8/18 14:39,512
12/8/18 14:39,494
12/8/18 14:39,519
12/8/18 14:39,495
12/8/18 14:39,506
12/8/18 14:39,515
12/8/18 14:39,495
12/8/18 14:39,518
12/8/18 14:39,493
12/8/18 14:39,499
12/8/18 14:39,500
12/8/18 14:39,474
12/8/18 14:39,513
12/8/18 14:39,495
12/8/18 14:39,505
12/8/18 14:39,511
12/8/18 14:39,495
12/8/18 14:39,522
12/8/18 14:39,497
12/8/18 14:39,509
12/8/18 14:39,511
12/8/18 14:39,495
12/8/18 14:39,520
12/8/18 14:39,492
12/8/18 14:39,510
12/8/18 14:39,511
12/8/18 14:39,496
12/8/18 14:39,518
12/8/18 14:39,493
12/8/18 14:39,513
12/8/18 14:39,508
12/8/18 14:39,495
12/8/18 14:39,517
12/8/18 14:39,492
12/8/18 14:39,513
12/8/18 14:39,506
12/8/18 14:39,496
12/8/18 14:39,518
12/8/18 14:39,493
12/8/18 14:39,514
12/8/18 14:39,504
12/8/18 14:39,498
12/8/18 14:39,519
12/8/18 14:39,494
12/8/18 14:39,515
12/8/18 14:39,504
12/8/18 14:39,498
12/8/18 14:39,518
12/8/18 14:39,492
12/8/18 14:39,516
12/8/18 14:39,502
12/8/18 14:39,499
12/8/18 14:39,517
12/8/18 14:39,490
12/8/18 14:39,518
12/8/18 14:39,500
12/8/18 14:39,501
12/8/18 14:39,511
12/8/18 14:39,486
12/8/18 14:39,506
12/8/18 14:39,502
12/8/18 14:39,508
12/8/18 14:39,519
12/8/18 14:39,496
12/8/18 14:39,523
12/8/18 14:39,501
12/8/18 14:39,504
12/8/18 14:39,515
12/8/18 14:39,492
12/8/18 14:39,518
12/8/18 14:39,495
12/8/18 14:39,504
12/8/18 14:39,510
12/8/18 14:39,492
12/8/18 14:39,516
12/8/18 14:39,493
12/8/18 14:39,504
12/8/18 14:39,511
12/8/18 14:39,491
12/8/18 14:39,518
12/8/18 14:39,494
12/8/18 14:39,504
12/8/18 14:39,510
12/8/18 14:39,492
12/8/18 14:39,518
12/8/18 14:39,493
12/8/18 14:39,507
12/8/18 14:39,508
12/8/18 14:39,492
12/8/18 14:39,517
12/8/18 14:39,493
12/8/18 14:39,520
12/8/18 14:39,507
12/8/18 14:39,507
12/8/18 14:39,524
12/8/18 14:39,488
12/8/18 14:39,502
12/8/18 14:39,500
12/8/18 14:39,495
12/8/18 14:39,520
12/8/18 14:39,492
12/8/18 14:39,509
12/8/18 14:39,503
12/8/18 14:39,493
12/8/18 14:39,516
12/8/18 14:39,496
12/8/18 14:39,512
12/8/18 14:39,493
12/8/18 14:39,475
12/8/18 14:39,508
12/8/18 14:39,486
12/8/18 14:39,516
12/8/18 14:39,505
12/8/18 14:39,502
12/8/18 14:39,519
12/8/18 14:39,492
12/8/18 14:39,517
12/8/18 14:39,505
12/8/18 14:39,502
12/8/18 14:39,517
12/8/18 14:39,493
12/8/18 14:39,517
12/8/18 14:39,500
12/8/18 14:39,500
12/8/18 14:39,517
12/8/18 14:39,492
12/8/18 14:39,518
12/8/18 14:39,500
12/8/18 14:39,503
12/8/18 14:39,514
12/8/18 14:39,492
12/8/18 14:39,519
12/8/18 14:39,496
12/8/18 14:39,505
12/8/18 14:39,514
12/8/18 14:39,493
12/8/18 14:39,521
12/8/18 14:39,497
12/8/18 14:39,505
12/8/18 14:39,511
12/8/18 14:39,491
12/8/18 14:39,519
12/8/18 14:39,495
12/8/18 14:39,506
12/8/18 14:39,512
12/8/18 14:39,493
12/8/18 14:39,519
12/8/18 14:39,493
12/8/18 14:39,506
12/8/18 14:39,511
12/8/18 14:39,494
12/8/18 14:39,519
12/8/18 14:39,493
12/8/18 14:39,510
12/8/18 14:39,508
12/8/18 14:39,495
12/8/18 14:39,521
12/8/18 14:39,494
12/8/18 14:39,510
12/8/18 14:39,507
12/8/18 14:39,494
12/8/18 14:39,519
12/8/18 14:39,492
12/8/18 14:39,510
12/8/18 14:39,506
12/8/18 14:39,497
12/8/18 14:39,517
12/8/18 14:39,490
12/8/18 14:39,511
12/8/18 14:39,503
12/8/18 14:39,496
12/8/18 14:39,516
12/8/18 14:39,492
12/8/18 14:39,511
12/8/18 14:39,501
12/8/18 14:39,499
12/8/18 14:39,518
12/8/18 14:39,490
12/8/18 14:39,515
12/8/18 14:39,500
12/8/18 14:39,499
12/8/18 14:39,515
12/8/18 14:39,490
12/8/18 14:39,516
12/8/18 14:39,500
12/8/18 14:39,500
12/8/18 14:39,515
12/8/18 14:39,491
12/8/18 14:39,510
12/8/18 14:39,498
12/8/18 14:39,506
12/8/18 14:39,505
12/8/18 14:39,495
12/8/18 14:39,535
12/8/18 14:39,506
12/8/18 14:39,502
12/8/18 14:39,506
12/8/18 14:39,486
12/8/18 14:39,516
12/8/18 14:39,494
12/8/18 14:39,505
12/8/18 14:39,514
12/8/18 14:39,485
12/8/18 14:39,513
12/8/18 14:39,493
12/8/18 14:39,502
12/8/18 14:39,508
12/8/18 14:39,490
12/8/18 14:39,516
12/8/18 14:39,495
12/8/18 14:39,503
12/8/18 14:39,511
12/8/18 14:39,493
12/8/18 14:39,520
12/8/18 14:39,493
12/8/18 14:39,509
12/8/18 14:39,509
12/8/18 14:39,495
12/8/18 14:39,519
12/8/18 14:39,495
12/8/18 14:39,511
12/8/18 14:39,508
12/8/18 14:39,497
12/8/18 14:39,519
12/8/18 14:39,491
12/8/18 14:39,513
12/8/18 14:39,508
12/8/18 14:39,497
12/8/18 14:39,519
12/8/18 14:39,491
12/8/18 14:39,511
12/8/18 14:39,504
12/8/18 14:39,498
12/8/18 14:39,518
12/8/18 14:39,492
12/8/18 14:39,512
12/8/18 14:39,501
12/8/18 14:39,499
12/8/18 14:39,519
12/8/18 14:39,492
12/8/18 14:39,515
12/8/18 14:39,504
12/8/18 14:39,501
12/8/18 14:39,515
12/8/18 14:39,493
12/8/18 14:39,516
12/8/18 14:39,502
12/8/18 14:39,500
12/8/18 14:39,515
12/8/18 14:39,491
12/8/18 14:39,518
12/8/18 14:39,499
12/8/18 14:39,500
12/8/18 14:39,515
12/8/18 14:39,489
12/8/18 14:39,516
12/8/18 14:39,498
12/8/18 14:39,501
12/8/18 14:39,514
12/8/18 14:39,490
12/8/18 14:39,517
12/8/18 14:39,497
12/8/18 14:39,503
12/8/18 14:39,509
12/8/18 14:39,477
12/8/18 14:39,516
12/8/18 14:39,499
12/8/18 14:39,509
12/8/18 14:39,515
12/8/18 14:39,497
12/8/18 14:39,520
12/8/18 14:39,497
12/8/18 14:39,507
12/8/18 14:39,513
12/8/18 14:39,493
12/8/18 14:39,518
12/8/18 14:39,495
12/8/18 14:39,506
12/8/18 14:39,509
12/8/18 14:39,492
12/8/18 14:39,518
12/8/18 14:39,493
12/8/18 14:39,507
12/8/18 14:39,508
12/8/18 14:39,494
12/8/18 14:39,517
12/8/18 14:39,492
12/8/18 14:39,511
12/8/18 14:39,517
12/8/18 14:39,492
12/8/18 14:39,526
12/8/18 14:39,498
12/8/18 14:39,507
12/8/18 14:39,498
12/8/18 14:39,495
12/8/18 14:39,518
12/8/18 14:39,489
12/8/18 14:39,494
12/8/18 14:39,497
12/8/18 14:39,494
12/8/18 14:39,522
12/8/18 14:39,498
12/8/18 14:39,518
12/8/18 14:39,506
12/8/18 14:39,499
12/8/18 14:39,516
12/8/18 14:39,489
12/8/18 14:39,514
12/8/18 14:39,499
12/8/18 14:39,496
12/8/18 14:39,516
12/8/18 14:39,487
12/8/18 14:39,513
12/8/18 14:39,500
12/8/18 14:39,498
12/8/18 14:39,515
12/8/18 14:39,490
12/8/18 14:39,516
12/8/18 14:39,499
12/8/18 14:39,503
12/8/18 14:39,516
12/8/18 14:39,492
12/8/18 14:39,517
12/8/18 14:39,498
12/8/18 14:39,505
12/8/18 14:39,515
12/8/18 14:39,491
12/8/18 14:39,519
12/8/18 14:39,498
12/8/18 14:39,503
12/8/18 14:39,512
12/8/18 14:39,492
12/8/18 14:48,504
12/8/18 14:48,504
12/8/18 14:48,501
12/8/18 14:48,501
12/8/18 14:48,505
12/8/18 14:48,503
12/8/18 14:48,505
12/8/18 14:48,504
12/8/18 14:48,503
12/8/18 14:48,505
12/8/18 14:48,501
12/8/18 14:48,505
12/8/18 14:48,502
12/8/18 14:48,504
12/8/18 14:48,505
12/8/18 14:48,503
12/8/18 14:48,505
12/8/18 14:48,504
12/8/18 14:48,504
12/8/18 14:48,504
12/8/18 14:48,501
12/8/18 14:48,503
12/8/18 14:48,503
12/8/18 14:48,503
12/8/18 14:48,503
12/8/18 14:48,503
12/8/18 14:48,505
12/8/18 14:48,502
12/8/18 14:48,505
12/8/18 14:48,505
12/8/18 14:48,504
12/8/18 14:48,505
12/8/18 14:48,503
12/8/18 14:48,504
12/8/18 14:48,504
12/8/18 14:48,493
12/8/18 14:48,496
12/8/18 14:48,504
12/8/18 14:48,505
12/8/18 14:48,509
12/8/18 14:48,509
12/8/18 14:48,510
12/8/18 14:48,508
12/8/18 14:48,508
12/8/18 14:48,505
12/8/18 14:48,513
12/8/18 14:48,511
12/8/18 14:48,506
12/8/18 14:48,515
12/8/18 14:48,504
12/8/18 14:48,500
12/8/18 14:48,499
12/8/18 14:48,500
12/8/18 14:48,504
12/8/18 14:48,503
12/8/18 14:48,502
12/8/18 14:48,500
12/8/18 14:48,498
12/8/18 14:48,500
12/8/18 14:48,502
12/8/18 14:48,504
12/8/18 14:48,503
12/8/18 14:48,501
12/8/18 14:48,501
12/8/18 14:48,503
12/8/18 14:48,500
