X,Bin ECG
12/8/18 13:09,510
12/8/18 13:09,510
12/8/18 13:09,511
12/8/18 13:09,507
12/8/18 13:09,510
12/8/18 13:09,510
12/8/18 13:09,511
12/8/18 13:09,511
12/8/18 13:09,509
12/8/18 13:09,510
12/8/18 13:09,508
12/8/18 13:09,506
12/8/18 13:09,508
12/8/18 13:09,509
12/8/18 13:09,511
12/8/18 13:09,510
12/8/18 13:09,508
12/8/18 13:09,508
12/8/18 13:09,508
12/8/18 13:09,506
12/8/18 13:09,506
12/8/18 13:09,510
12/8/18 13:09,510
12/8/18 13:09,507
12/8/18 13:09,510
12/8/18 13:09,508
12/8/18 13:09,512
12/8/18 13:09,508
12/8/18 13:09,509
12/8/18 13:09,515
12/8/18 13:09,512
12/8/18 13:09,509
12/8/18 13:09,508
12/8/18 13:09,509
12/8/18 13:09,507
12/8/18 13:09,504
12/8/18 13:09,510
12/8/18 13:09,507
12/8/18 13:09,510
12/8/18 13:09,511
12/8/18 13:09,508
12/8/18 13:09,508
12/8/18 13:09,505
12/8/18 13:09,494
12/8/18 13:09,476
12/8/18 13:09,510
12/8/18 13:09,509
12/8/18 13:09,511
12/8/18 13:09,516
12/8/18 13:09,522
12/8/18 13:09,518
12/8/18 13:09,521
12/8/18 13:09,514
12/8/18 13:09,482
12/8/18 13:09,505
12/8/18 13:09,520
12/8/18 13:09,525
12/8/18 13:09,525
12/8/18 13:09,519
12/8/18 13:09,518
12/8/18 13:09,516
12/8/18 13:09,513
12/8/18 13:09,509
12/8/18 13:09,511
12/8/18 13:09,507
12/8/18 13:09,503
12/8/18 13:09,506
12/8/18 13:09,503
12/8/18 13:09,507
12/8/18 13:09,509
12/8/18 13:09,496
12/8/18 13:09,516
12/8/18 13:09,497
12/8/18 13:09,495
12/8/18 13:09,501
12/8/18 13:09,507
12/8/18 13:09,509
12/8/18 13:09,512
12/8/18 13:09,508
12/8/18 13:09,511
12/8/18 13:09,509
12/8/18 13:09,506
12/8/18 13:09,479
12/8/18 13:09,499
12/8/18 13:09,509
12/8/18 13:09,528
12/8/18 13:09,510
12/8/18 13:09,500
12/8/18 13:09,509
12/8/18 13:09,512
12/8/18 13:09,508
12/8/18 13:09,509
12/8/18 13:09,514
12/8/18 13:09,510
12/8/18 13:09,510
12/8/18 13:09,511
12/8/18 13:09,514
12/8/18 13:09,513
12/8/18 13:09,555
12/8/18 13:09,597
12/8/18 13:09,616
12/8/18 13:09,513
12/8/18 13:09,461
12/8/18 13:09,460
12/8/18 13:09,487
12/8/18 13:09,481
12/8/18 13:09,497
12/8/18 13:09,512
12/8/18 13:09,493
12/8/18 13:09,492
12/8/18 13:09,498
12/8/18 13:09,495
12/8/18 13:09,490
12/8/18 13:09,484
12/8/18 13:09,480
12/8/18 13:09,483
12/8/18 13:09,488
12/8/18 13:09,491
12/8/18 13:09,497
12/8/18 13:09,498
12/8/18 13:09,505
12/8/18 13:09,507
12/8/18 13:09,507
12/8/18 13:09,511
12/8/18 13:09,513
12/8/18 13:09,506
12/8/18 13:09,509
12/8/18 13:09,510
12/8/18 13:09,510
12/8/18 13:09,509
12/8/18 13:09,509
12/8/18 13:09,511
12/8/18 13:09,510
12/8/18 13:09,515
12/8/18 13:09,509
12/8/18 13:09,510
12/8/18 13:09,513
12/8/18 13:09,508
12/8/18 13:09,510
12/8/18 13:09,509
12/8/18 13:09,509
12/8/18 13:09,510
12/8/18 13:09,507
12/8/18 13:09,511
12/8/18 13:09,510
12/8/18 13:09,500
12/8/18 13:09,506
12/8/18 13:09,508
12/8/18 13:09,510
12/8/18 13:09,510
12/8/18 13:09,515
12/8/18 13:09,509
12/8/18 13:09,515
12/8/18 13:09,511
12/8/18 13:09,510
12/8/18 13:09,511
12/8/18 13:09,509
12/8/18 13:09,508
12/8/18 13:09,510
12/8/18 13:09,508
12/8/18 13:09,513
12/8/18 13:09,510
12/8/18 13:09,510
12/8/18 13:09,506
12/8/18 13:09,507
12/8/18 13:09,508
12/8/18 13:09,507
12/8/18 13:09,506
12/8/18 13:09,512
12/8/18 13:09,513
12/8/18 13:09,509
12/8/18 13:09,508
12/8/18 13:09,508
12/8/18 13:09,508
12/8/18 13:09,480
12/8/18 13:09,501
12/8/18 13:09,514
12/8/18 13:09,526
12/8/18 13:09,511
12/8/18 13:09,510
12/8/18 13:09,513
12/8/18 13:09,514
12/8/18 13:09,517
12/8/18 13:09,516
12/8/18 13:09,513
12/8/18 13:09,515
12/8/18 13:09,511
12/8/18 13:09,508
12/8/18 13:09,514
12/8/18 13:09,510
12/8/18 13:09,506
12/8/18 13:09,490
12/8/18 13:09,479
12/8/18 13:09,507
12/8/18 13:09,517
12/8/18 13:09,516
12/8/18 13:09,517
12/8/18 13:09,517
12/8/18 13:09,513
12/8/18 13:09,511
12/8/18 13:09,510
12/8/18 13:09,507
12/8/18 13:09,501
12/8/18 13:09,511
12/8/18 13:09,494
12/8/18 13:09,500
12/8/18 13:09,504
12/8/18 13:09,508
12/8/18 13:09,503
12/8/18 13:09,474
12/8/18 13:09,503
12/8/18 13:09,518
12/8/18 13:09,523
12/8/18 13:09,519
12/8/18 13:09,518
12/8/18 13:09,520
12/8/18 13:09,508
12/8/18 13:09,569
12/8/18 13:09,588
12/8/18 13:09,616
12/8/18 13:09,504
12/8/18 13:09,466
12/8/18 13:09,457
12/8/18 13:09,480
12/8/18 13:09,485
12/8/18 13:09,504
12/8/18 13:09,497
12/8/18 13:09,509
12/8/18 13:09,502
12/8/18 13:09,489
12/8/18 13:09,500
12/8/18 13:09,494
12/8/18 13:09,488
12/8/18 13:09,485
12/8/18 13:09,453
12/8/18 13:09,481
12/8/18 13:09,501
12/8/18 13:09,508
12/8/18 13:09,507
12/8/18 13:09,498
12/8/18 13:09,521
12/8/18 13:09,504
12/8/18 13:09,505
12/8/18 13:09,508
12/8/18 13:09,510
12/8/18 13:09,510
12/8/18 13:09,510
12/8/18 13:09,512
12/8/18 13:09,514
12/8/18 13:09,512
12/8/18 13:09,511
12/8/18 13:09,508
12/8/18 13:09,509
12/8/18 13:09,509
12/8/18 13:09,501
12/8/18 13:09,460
12/8/18 13:09,506
12/8/18 13:09,509
12/8/18 13:09,515
12/8/18 13:09,476
12/8/18 13:09,516
12/8/18 13:09,519
12/8/18 13:09,517
12/8/18 13:09,522
12/8/18 13:09,520
12/8/18 13:09,525
12/8/18 13:09,524
12/8/18 13:09,523
12/8/18 13:09,520
12/8/18 13:09,515
12/8/18 13:09,516
12/8/18 13:09,511
12/8/18 13:09,513
12/8/18 13:09,512
12/8/18 13:09,513
12/8/18 13:09,510
12/8/18 13:09,510
12/8/18 13:09,510
12/8/18 13:09,509
12/8/18 13:09,507
12/8/18 13:09,506
12/8/18 13:09,496
12/8/18 13:09,515
12/8/18 13:09,496
12/8/18 13:09,499
12/8/18 13:09,505
12/8/18 13:09,505
12/8/18 13:09,507
12/8/18 13:09,507
12/8/18 13:09,510
12/8/18 13:09,514
12/8/18 13:09,511
12/8/18 13:09,514
12/8/18 13:09,509
12/8/18 13:09,509
12/8/18 13:09,510
12/8/18 13:09,508
12/8/18 13:09,509
12/8/18 13:09,509
12/8/18 13:09,510
12/8/18 13:09,509
12/8/18 13:09,509
12/8/18 13:09,509
12/8/18 13:09,509
12/8/18 13:09,506
12/8/18 13:09,506
12/8/18 13:09,505
12/8/18 13:09,508
12/8/18 13:09,507
12/8/18 13:09,508
12/8/18 13:09,506
12/8/18 13:09,505
12/8/18 13:09,506
12/8/18 13:09,505
12/8/18 13:09,510
12/8/18 13:09,508
12/8/18 13:09,509
12/8/18 13:09,507
12/8/18 13:09,481
12/8/18 13:09,486
12/8/18 13:09,498
12/8/18 13:09,511
12/8/18 13:09,517
12/8/18 13:09,522
12/8/18 13:09,519
12/8/18 13:09,520
12/8/18 13:09,516
12/8/18 13:09,514
12/8/18 13:09,514
12/8/18 13:09,510
12/8/18 13:09,507
12/8/18 13:09,509
12/8/18 13:09,506
12/8/18 13:09,506
12/8/18 13:09,507
12/8/18 13:09,508
12/8/18 13:09,505
12/8/18 13:09,507
12/8/18 13:09,506
12/8/18 13:09,508
12/8/18 13:09,503
12/8/18 13:09,561
12/8/18 13:09,612
12/8/18 13:09,549
12/8/18 13:09,486
12/8/18 13:09,474
12/8/18 13:09,483
12/8/18 13:09,506
12/8/18 13:09,501
12/8/18 13:09,507
12/8/18 13:09,509
12/8/18 13:09,506
12/8/18 13:09,484
12/8/18 13:09,482
12/8/18 13:09,490
12/8/18 13:09,492
12/8/18 13:09,490
12/8/18 13:09,501
12/8/18 13:09,492
12/8/18 13:09,491
12/8/18 13:09,495
12/8/18 13:09,497
12/8/18 13:09,503
12/8/18 13:09,509
12/8/18 13:09,506
12/8/18 13:09,509
12/8/18 13:09,510
12/8/18 13:09,509
12/8/18 13:09,508
12/8/18 13:09,510
12/8/18 13:09,510
12/8/18 13:09,509
12/8/18 13:09,511
12/8/18 13:09,509
12/8/18 13:09,511
12/8/18 13:09,509
12/8/18 13:09,511
12/8/18 13:09,512
12/8/18 13:09,507
12/8/18 13:09,508
12/8/18 13:09,507
12/8/18 13:09,507
12/8/18 13:09,507
12/8/18 13:09,509
12/8/18 13:09,509
12/8/18 13:09,505
12/8/18 13:09,511
12/8/18 13:09,497
12/8/18 13:09,464
12/8/18 13:09,497
12/8/18 13:09,515
12/8/18 13:09,526
12/8/18 13:09,526
12/8/18 13:09,524
12/8/18 13:09,521
12/8/18 13:09,520
12/8/18 13:09,515
12/8/18 13:09,515
12/8/18 13:09,513
12/8/18 13:09,510
12/8/18 13:09,509
12/8/18 13:09,508
12/8/18 13:09,509
12/8/18 13:09,509
12/8/18 13:09,506
12/8/18 13:09,507
12/8/18 13:09,510
12/8/18 13:09,509
12/8/18 13:09,507
12/8/18 13:09,509
12/8/18 13:09,507
12/8/18 13:09,507
12/8/18 13:09,510
12/8/18 13:09,506
12/8/18 13:09,509
12/8/18 13:09,508
12/8/18 13:09,509
12/8/18 13:09,513
12/8/18 13:09,506
12/8/18 13:09,507
12/8/18 13:09,507
12/8/18 13:09,509
12/8/18 13:09,509
12/8/18 13:09,511
12/8/18 13:09,511
12/8/18 13:09,510
12/8/18 13:09,510
12/8/18 13:09,504
12/8/18 13:09,508
12/8/18 13:09,511
12/8/18 13:09,509
12/8/18 13:09,511
12/8/18 13:09,504
12/8/18 13:09,506
12/8/18 13:09,507
12/8/18 13:09,507
12/8/18 13:09,478
12/8/18 13:09,491
12/8/18 13:09,513
12/8/18 13:09,517
12/8/18 13:09,522
12/8/18 13:09,513
12/8/18 13:09,511
12/8/18 13:09,515
12/8/18 13:09,514
12/8/18 13:09,508
12/8/18 13:09,510
12/8/18 13:09,508
12/8/18 13:09,507
12/8/18 13:09,509
12/8/18 13:09,507
12/8/18 13:09,506
12/8/18 13:09,507
12/8/18 13:09,509
12/8/18 13:09,509
12/8/18 13:09,504
12/8/18 13:09,507
12/8/18 13:09,508
12/8/18 13:09,503
12/8/18 13:09,508
12/8/18 13:09,507
12/8/18 13:09,508
12/8/18 13:09,514
12/8/18 13:09,595
12/8/18 13:09,619
12/8/18 13:09,553
12/8/18 13:09,476
12/8/18 13:09,460
12/8/18 13:09,474
12/8/18 13:09,480
12/8/18 13:09,499
12/8/18 13:09,493
12/8/18 13:09,504
12/8/18 13:09,499
12/8/18 13:09,489
12/8/18 13:09,496
12/8/18 13:09,501
12/8/18 13:09,503
12/8/18 13:09,497
12/8/18 13:09,493
12/8/18 13:09,488
12/8/18 13:09,489
12/8/18 13:09,491
12/8/18 13:09,496
12/8/18 13:09,500
12/8/18 13:09,499
12/8/18 13:09,503
12/8/18 13:09,504
12/8/18 13:09,508
12/8/18 13:09,506
12/8/18 13:09,516
12/8/18 13:09,507
12/8/18 13:09,499
12/8/18 13:09,505
12/8/18 13:09,509
12/8/18 13:09,511
12/8/18 13:09,518
12/8/18 13:09,516
12/8/18 13:09,513
12/8/18 13:09,514
12/8/18 13:09,510
12/8/18 13:09,510
12/8/18 13:09,510
12/8/18 13:09,509
12/8/18 13:09,507
12/8/18 13:09,505
12/8/18 13:09,484
12/8/18 13:09,489
12/8/18 13:09,513
12/8/18 13:09,519
12/8/18 13:09,522
12/8/18 13:09,523
12/8/18 13:09,518
12/8/18 13:09,518
12/8/18 13:09,513
12/8/18 13:09,510
12/8/18 13:09,508
12/8/18 13:09,509
12/8/18 13:09,509
12/8/18 13:09,511
12/8/18 13:09,509
12/8/18 13:09,510
12/8/18 13:09,509
12/8/18 13:09,510
12/8/18 13:09,507
12/8/18 13:09,510
12/8/18 13:09,507
12/8/18 13:09,506
12/8/18 13:09,510
12/8/18 13:09,506
12/8/18 13:09,509
12/8/18 13:09,508
12/8/18 13:09,510
12/8/18 13:09,509
12/8/18 13:09,511
12/8/18 13:09,508
12/8/18 13:09,508
12/8/18 13:09,511
12/8/18 13:09,509
12/8/18 13:09,507
12/8/18 13:09,508
12/8/18 13:09,508
12/8/18 13:09,508
12/8/18 13:09,509
12/8/18 13:09,511
12/8/18 13:09,510
12/8/18 13:09,508
12/8/18 13:09,510
12/8/18 13:09,507
12/8/18 13:09,508
12/8/18 13:09,511
12/8/18 13:09,508
12/8/18 13:09,507
12/8/18 13:09,509
12/8/18 13:09,508
12/8/18 13:09,510
12/8/18 13:09,510
12/8/18 13:09,505
12/8/18 13:09,502
12/8/18 13:09,515
12/8/18 13:09,506
12/8/18 13:09,504
12/8/18 13:09,505
12/8/18 13:09,508
12/8/18 13:09,511
12/8/18 13:09,509
12/8/18 13:09,510
12/8/18 13:09,512
12/8/18 13:09,507
12/8/18 13:09,506
12/8/18 13:09,507
12/8/18 13:09,508
12/8/18 13:09,511
12/8/18 13:09,510
12/8/18 13:09,509
12/8/18 13:09,506
12/8/18 13:09,506
12/8/18 13:09,507
12/8/18 13:09,506
12/8/18 13:09,508
12/8/18 13:09,505
12/8/18 13:09,505
12/8/18 13:09,505
12/8/18 13:09,506
12/8/18 13:09,507
12/8/18 13:09,517
12/8/18 13:09,559
12/8/18 13:09,598
12/8/18 13:09,598
12/8/18 13:09,483
12/8/18 13:09,451
12/8/18 13:09,463
12/8/18 13:09,490
12/8/18 13:09,496
12/8/18 13:09,511
12/8/18 13:09,513
12/8/18 13:09,503
12/8/18 13:09,509
12/8/18 13:09,505
12/8/18 13:09,480
12/8/18 13:18,507
12/8/18 13:18,507
12/8/18 13:18,509
12/8/18 13:18,507
12/8/18 13:18,506
12/8/18 13:18,508
12/8/18 13:18,586
12/8/18 13:18,588
12/8/18 13:18,599
12/8/18 13:18,497
12/8/18 13:18,471
12/8/18 13:18,468
12/8/18 13:18,474
12/8/18 13:18,482
12/8/18 13:18,449
12/8/18 13:18,491
12/8/18 13:18,500
12/8/18 13:18,517
12/8/18 13:18,495
12/8/18 13:18,499
12/8/18 13:18,503
12/8/18 13:18,504
12/8/18 13:18,501
12/8/18 13:18,501
12/8/18 13:18,499
12/8/18 13:18,501
12/8/18 13:18,503
12/8/18 13:18,504
12/8/18 13:18,505
12/8/18 13:18,505
12/8/18 13:18,507
12/8/18 13:18,505
12/8/18 13:18,507
12/8/18 13:18,507
12/8/18 13:18,507
12/8/18 13:18,509
12/8/18 13:18,509
12/8/18 13:18,510
12/8/18 13:18,509
12/8/18 13:18,507
12/8/18 13:18,509
12/8/18 13:18,509
12/8/18 13:18,507
12/8/18 13:18,498
12/8/18 13:18,485
12/8/18 13:18,498
12/8/18 13:18,506
12/8/18 13:18,511
12/8/18 13:18,518
12/8/18 13:18,516
12/8/18 13:18,518
12/8/18 13:18,517
12/8/18 13:18,514
12/8/18 13:18,509
12/8/18 13:18,522
12/8/18 13:18,508
12/8/18 13:18,496
12/8/18 13:18,500
12/8/18 13:18,506
12/8/18 13:18,510
12/8/18 13:18,514
12/8/18 13:18,511
12/8/18 13:18,516
12/8/18 13:18,515
12/8/18 13:18,516
12/8/18 13:18,514
12/8/18 13:18,516
12/8/18 13:18,515
12/8/18 13:18,513
12/8/18 13:18,511
12/8/18 13:18,489
12/8/18 13:18,481
12/8/18 13:18,513
12/8/18 13:18,526
12/8/18 13:18,510
12/8/18 13:18,508
12/8/18 13:18,513
12/8/18 13:18,513
12/8/18 13:18,514
12/8/18 13:18,516
12/8/18 13:18,502
12/8/18 13:18,488
12/8/18 13:18,497
12/8/18 13:18,507
12/8/18 13:18,516
12/8/18 13:18,520
12/8/18 13:18,521
12/8/18 13:18,520
12/8/18 13:18,519
12/8/18 13:18,520
12/8/18 13:18,515
12/8/18 13:18,514
12/8/18 13:18,511
12/8/18 13:18,514
12/8/18 13:18,487
12/8/18 13:18,486
12/8/18 13:18,514
12/8/18 13:18,525
12/8/18 13:18,523
12/8/18 13:18,520
12/8/18 13:18,515
12/8/18 13:18,505
12/8/18 13:18,527
12/8/18 13:18,500
12/8/18 13:18,492
12/8/18 13:18,497
12/8/18 13:18,500
12/8/18 13:18,509
12/8/18 13:18,503
12/8/18 13:18,464
12/8/18 13:18,492
12/8/18 13:18,519
12/8/18 13:18,524
12/8/18 13:18,521
12/8/18 13:18,520
12/8/18 13:18,517
12/8/18 13:18,512
12/8/18 13:18,511
12/8/18 13:18,508
12/8/18 13:18,507
12/8/18 13:18,504
12/8/18 13:18,507
12/8/18 13:18,510
12/8/18 13:18,547
12/8/18 13:18,635
12/8/18 13:18,546
12/8/18 13:18,474
12/8/18 13:18,464
12/8/18 13:18,476
12/8/18 13:18,474
12/8/18 13:18,456
12/8/18 13:18,490
12/8/18 13:18,523
12/8/18 13:18,503
12/8/18 13:18,495
12/8/18 13:18,482
12/8/18 13:18,505
12/8/18 13:18,501
12/8/18 13:18,516
12/8/18 13:18,524
12/8/18 13:18,524
12/8/18 13:18,517
12/8/18 13:18,503
12/8/18 13:18,498
12/8/18 13:18,496
12/8/18 13:18,495
12/8/18 13:18,497
12/8/18 13:18,498
12/8/18 13:18,501
12/8/18 13:18,503
12/8/18 13:18,504
12/8/18 13:18,500
12/8/18 13:18,525
12/8/18 13:18,498
12/8/18 13:18,493
12/8/18 13:18,494
12/8/18 13:18,466
12/8/18 13:18,483
12/8/18 13:18,521
12/8/18 13:18,531
12/8/18 13:18,529
12/8/18 13:18,528
12/8/18 13:18,522
12/8/18 13:18,520
12/8/18 13:18,516
12/8/18 13:18,516
12/8/18 13:18,513
12/8/18 13:18,506
12/8/18 13:18,514
12/8/18 13:18,492
12/8/18 13:18,486
12/8/18 13:18,454
12/8/18 13:18,501
12/8/18 13:18,520
12/8/18 13:18,531
12/8/18 13:18,529
12/8/18 13:18,523
12/8/18 13:18,518
12/8/18 13:18,506
12/8/18 13:18,460
12/8/18 13:18,529
12/8/18 13:18,516
12/8/18 13:18,512
12/8/18 13:18,516
12/8/18 13:18,520
12/8/18 13:18,518
12/8/18 13:18,518
12/8/18 13:18,516
12/8/18 13:18,515
12/8/18 13:18,514
12/8/18 13:18,514
12/8/18 13:18,513
12/8/18 13:18,514
12/8/18 13:18,511
12/8/18 13:18,510
12/8/18 13:18,509
12/8/18 13:18,508
12/8/18 13:18,504
12/8/18 13:18,450
12/8/18 13:18,516
12/8/18 13:18,509
12/8/18 13:18,510
12/8/18 13:18,515
12/8/18 13:18,517
12/8/18 13:18,517
12/8/18 13:18,516
12/8/18 13:18,513
12/8/18 13:18,514
12/8/18 13:18,514
12/8/18 13:18,512
12/8/18 13:18,516
12/8/18 13:18,510
12/8/18 13:18,454
12/8/18 13:18,469
12/8/18 13:18,511
12/8/18 13:18,524
12/8/18 13:18,527
12/8/18 13:18,527
12/8/18 13:18,522
12/8/18 13:18,520
12/8/18 13:18,516
12/8/18 13:18,514
12/8/18 13:18,509
12/8/18 13:18,510
12/8/18 13:18,509
12/8/18 13:18,506
12/8/18 13:18,469
12/8/18 13:18,489
12/8/18 13:18,501
12/8/18 13:18,507
12/8/18 13:18,514
12/8/18 13:18,519
12/8/18 13:18,517
12/8/18 13:18,516
12/8/18 13:18,513
12/8/18 13:18,513
12/8/18 13:18,513
12/8/18 13:18,512
12/8/18 13:18,509
12/8/18 13:18,508
12/8/18 13:18,508
12/8/18 13:18,509
12/8/18 13:18,508
12/8/18 13:18,535
12/8/18 13:18,574
12/8/18 13:18,617
12/8/18 13:18,509
12/8/18 13:18,454
12/8/18 13:18,456
12/8/18 13:18,470
12/8/18 13:18,498
12/8/18 13:18,505
12/8/18 13:18,512
12/8/18 13:18,510
12/8/18 13:18,504
12/8/18 13:18,509
12/8/18 13:18,512
12/8/18 13:18,507
12/8/18 13:18,493
12/8/18 13:18,428
12/8/18 13:18,476
12/8/18 13:18,506
12/8/18 13:18,514
12/8/18 13:18,512
12/8/18 13:18,513
12/8/18 13:18,509
12/8/18 13:18,508
12/8/18 13:18,507
12/8/18 13:18,505
12/8/18 13:18,496
12/8/18 13:18,514
12/8/18 13:18,490
12/8/18 13:18,494
12/8/18 13:18,500
12/8/18 13:18,509
12/8/18 13:18,509
12/8/18 13:18,515
12/8/18 13:18,514
12/8/18 13:18,513
12/8/18 13:18,513
12/8/18 13:18,510
12/8/18 13:18,509
12/8/18 13:18,507
12/8/18 13:18,509
12/8/18 13:18,508
12/8/18 13:18,507
12/8/18 13:18,509
12/8/18 13:18,510
12/8/18 13:18,509
12/8/18 13:18,508
12/8/18 13:18,482
12/8/18 13:18,469
12/8/18 13:18,511
12/8/18 13:18,529
12/8/18 13:18,523
12/8/18 13:18,542
12/8/18 13:18,514
12/8/18 13:18,502
12/8/18 13:18,504
12/8/18 13:18,511
12/8/18 13:18,516
12/8/18 13:18,514
12/8/18 13:18,514
12/8/18 13:18,516
12/8/18 13:18,513
12/8/18 13:18,511
12/8/18 13:18,513
12/8/18 13:18,509
12/8/18 13:18,510
12/8/18 13:18,508
12/8/18 13:18,509
12/8/18 13:18,507
12/8/18 13:18,506
12/8/18 13:18,508
12/8/18 13:18,509
12/8/18 13:18,492
12/8/18 13:18,497
12/8/18 13:18,452
12/8/18 13:18,498
12/8/18 13:18,519
12/8/18 13:18,529
12/8/18 13:18,530
12/8/18 13:18,527
12/8/18 13:18,526
12/8/18 13:18,517
12/8/18 13:18,517
12/8/18 13:18,518
12/8/18 13:18,514
12/8/18 13:18,511
12/8/18 13:18,508
12/8/18 13:18,508
12/8/18 13:18,508
12/8/18 13:18,503
12/8/18 13:18,505
12/8/18 13:18,505
12/8/18 13:18,506
12/8/18 13:18,507
12/8/18 13:18,508
12/8/18 13:18,507
12/8/18 13:18,506
12/8/18 13:18,509
12/8/18 13:18,507
12/8/18 13:18,506
12/8/18 13:18,497
12/8/18 13:18,525
12/8/18 13:18,496
12/8/18 13:18,491
12/8/18 13:18,495
12/8/18 13:18,456
12/8/18 13:18,486
12/8/18 13:18,524
12/8/18 13:18,530
12/8/18 13:18,531
12/8/18 13:18,531
12/8/18 13:18,524
12/8/18 13:18,520
12/8/18 13:18,516
12/8/18 13:18,510
12/8/18 13:18,511
12/8/18 13:18,507
12/8/18 13:18,508
12/8/18 13:18,506
12/8/18 13:18,507
12/8/18 13:18,569
12/8/18 13:18,599
12/8/18 13:18,582
12/8/18 13:18,500
12/8/18 13:18,471
12/8/18 13:18,452
12/8/18 13:18,502
12/8/18 13:18,415
12/8/18 13:18,463
12/8/18 13:18,516
12/8/18 13:18,500
12/8/18 13:18,526
12/8/18 13:18,502
12/8/18 13:18,492
12/8/18 13:18,502
12/8/18 13:18,506
12/8/18 13:18,504
12/8/18 13:18,503
12/8/18 13:18,503
12/8/18 13:18,501
12/8/18 13:18,502
12/8/18 13:18,500
12/8/18 13:18,505
12/8/18 13:18,502
12/8/18 13:18,506
12/8/18 13:18,506
12/8/18 13:18,494
12/8/18 13:18,462
12/8/18 13:18,501
12/8/18 13:18,530
12/8/18 13:18,522
12/8/18 13:18,507
12/8/18 13:18,513
12/8/18 13:18,514
12/8/18 13:18,517
12/8/18 13:18,519
12/8/18 13:18,517
12/8/18 13:18,516
12/8/18 13:18,512
12/8/18 13:18,514
12/8/18 13:18,511
12/8/18 13:18,506
12/8/18 13:18,510
12/8/18 13:18,509
12/8/18 13:18,508
12/8/18 13:18,509
12/8/18 13:18,506
12/8/18 13:18,504
12/8/18 13:18,504
12/8/18 13:18,506
12/8/18 13:18,493
12/8/18 13:18,466
12/8/18 13:18,480
12/8/18 13:18,506
12/8/18 13:18,520
12/8/18 13:18,525
12/8/18 13:18,524
12/8/18 13:18,524
12/8/18 13:18,522
12/8/18 13:18,518
12/8/18 13:18,516
12/8/18 13:18,509
12/8/18 13:18,511
12/8/18 13:18,515
12/8/18 13:18,510
12/8/18 13:18,508
12/8/18 13:18,510
12/8/18 13:18,509
12/8/18 13:18,506
12/8/18 13:18,459
12/8/18 13:18,492
12/8/18 13:18,502
12/8/18 13:18,514
12/8/18 13:18,518
12/8/18 13:18,517
12/8/18 13:18,520
12/8/18 13:18,523
12/8/18 13:18,523
12/8/18 13:18,515
12/8/18 13:18,518
12/8/18 13:18,516
12/8/18 13:18,512
12/8/18 13:18,509
12/8/18 13:18,510
12/8/18 13:18,509
12/8/18 13:18,509
12/8/18 13:18,507
12/8/18 13:18,508
12/8/18 13:18,504
12/8/18 13:18,504
12/8/18 13:18,506
12/8/18 13:18,503
12/8/18 13:18,507
12/8/18 13:18,502
12/8/18 13:18,502
12/8/18 13:18,507
12/8/18 13:18,507
12/8/18 13:18,509
12/8/18 13:18,507
12/8/18 13:18,509
12/8/18 13:18,507
12/8/18 13:18,505
12/8/18 13:18,503
12/8/18 13:18,518
12/8/18 13:18,503
12/8/18 13:18,490
12/8/18 13:18,485
12/8/18 13:18,453
12/8/18 13:18,503
12/8/18 13:18,529
12/8/18 13:18,533
12/8/18 13:18,531
12/8/18 13:18,528
12/8/18 13:18,524
12/8/18 13:18,517
12/8/18 13:18,515
12/8/18 13:18,535
12/8/18 13:18,573
12/8/18 13:18,622
12/8/18 13:18,539
12/8/18 13:18,481
12/8/18 13:18,468
12/8/18 13:18,475
12/8/18 13:18,485
12/8/18 13:18,492
12/8/18 13:18,494
12/8/18 13:18,503
12/8/18 13:18,490
12/8/18 13:18,501
12/8/18 13:18,495
12/8/18 13:18,487
12/8/18 13:18,495
12/8/18 13:18,496
12/8/18 13:18,445
12/8/18 13:18,477
12/8/18 13:18,509
12/8/18 13:18,513
12/8/18 13:18,498
12/8/18 13:18,502
12/8/18 13:18,509
12/8/18 13:18,511
12/8/18 13:18,515
12/8/18 13:18,509
12/8/18 13:18,538
12/8/18 13:18,504
12/8/18 13:18,494
12/8/18 13:18,500
12/8/18 13:18,508
12/8/18 13:18,512
12/8/18 13:18,515
12/8/18 13:18,514
12/8/18 13:18,512
12/8/18 13:18,515
12/8/18 13:18,513
12/8/18 13:18,513
12/8/18 13:18,510
12/8/18 13:18,510
12/8/18 13:18,509
12/8/18 13:18,508
12/8/18 13:18,506
12/8/18 13:18,505
12/8/18 13:18,508
12/8/18 13:18,508
12/8/18 13:18,507
12/8/18 13:18,508
12/8/18 13:18,507
12/8/18 13:18,506
12/8/18 13:18,508
12/8/18 13:18,508
12/8/18 13:18,507
12/8/18 13:18,484
12/8/18 13:18,460
12/8/18 13:18,530
12/8/18 13:18,516
12/8/18 13:18,511
12/8/18 13:18,516
12/8/18 13:18,520
12/8/18 13:18,517
12/8/18 13:18,483
12/8/18 13:18,495
12/8/18 13:18,507
12/8/18 13:18,522
12/8/18 13:18,526
12/8/18 13:18,527
12/8/18 13:18,527
12/8/18 13:18,521
12/8/18 13:18,519
12/8/18 13:18,519
12/8/18 13:18,517
12/8/18 13:18,515
12/8/18 13:18,511
12/8/18 13:18,513
12/8/18 13:18,508
12/8/18 13:18,507
12/8/18 13:18,505
12/8/18 13:18,507
12/8/18 13:18,507
12/8/18 13:18,509
12/8/18 13:18,506
12/8/18 13:18,507
12/8/18 13:18,505
12/8/18 13:18,507
12/8/18 13:18,504
12/8/18 13:18,506
12/8/18 13:18,505
12/8/18 13:18,505
12/8/18 13:18,506
12/8/18 13:18,504
12/8/18 13:18,504
12/8/18 13:18,525
12/8/18 13:18,470
12/8/18 13:18,450
12/8/18 13:18,500
12/8/18 13:18,522
12/8/18 13:18,532
12/8/18 13:18,530
12/8/18 13:18,528
12/8/18 13:18,520
12/8/18 13:18,512
12/8/18 13:18,534
12/8/18 13:18,498
12/8/18 13:18,493
12/8/18 13:18,477
12/8/18 13:18,461
12/8/18 13:18,510
12/8/18 13:18,526
12/8/18 13:18,530
12/8/18 13:18,529
12/8/18 13:18,522
12/8/18 13:18,520
12/8/18 13:18,518
12/8/18 13:18,508
12/8/18 13:18,602
12/8/18 13:18,600
12/8/18 13:18,535
12/8/18 13:18,476
12/8/18 13:18,467
12/8/18 13:27,508
12/8/18 13:27,508
12/8/18 13:27,507
12/8/18 13:27,509
12/8/18 13:27,510
12/8/18 13:27,509
12/8/18 13:27,508
12/8/18 13:27,507
12/8/18 13:27,509
12/8/18 13:27,508
12/8/18 13:27,508
12/8/18 13:27,507
12/8/18 13:27,506
12/8/18 13:27,509
12/8/18 13:27,508
12/8/18 13:27,506
12/8/18 13:27,506
12/8/18 13:27,503
12/8/18 13:27,505
12/8/18 13:27,507
12/8/18 13:27,507
12/8/18 13:27,509
12/8/18 13:27,508
12/8/18 13:27,507
12/8/18 13:27,508
12/8/18 13:27,505
12/8/18 13:27,506
12/8/18 13:27,508
12/8/18 13:27,510
12/8/18 13:27,507
12/8/18 13:27,520
12/8/18 13:27,630
12/8/18 13:27,578
12/8/18 13:27,551
12/8/18 13:27,481
12/8/18 13:27,467
12/8/18 13:27,475
12/8/18 13:27,478
12/8/18 13:27,500
12/8/18 13:27,489
12/8/18 13:27,506
12/8/18 13:27,495
12/8/18 13:27,495
12/8/18 13:27,505
12/8/18 13:27,506
12/8/18 13:27,498
12/8/18 13:27,496
12/8/18 13:27,489
12/8/18 13:27,490
12/8/18 13:27,491
12/8/18 13:27,495
12/8/18 13:27,509
12/8/18 13:27,473
12/8/18 13:27,478
12/8/18 13:27,497
12/8/18 13:27,512
12/8/18 13:27,518
12/8/18 13:27,519
12/8/18 13:27,520
12/8/18 13:27,517
12/8/18 13:27,517
12/8/18 13:27,513
12/8/18 13:27,514
12/8/18 13:27,513
12/8/18 13:27,510
12/8/18 13:27,510
12/8/18 13:27,511
12/8/18 13:27,509
12/8/18 13:27,510
12/8/18 13:27,509
12/8/18 13:27,505
12/8/18 13:27,509
12/8/18 13:27,509
12/8/18 13:27,509
12/8/18 13:27,507
12/8/18 13:27,508
12/8/18 13:27,509
12/8/18 13:27,507
12/8/18 13:27,509
12/8/18 13:27,507
12/8/18 13:27,514
12/8/18 13:27,507
12/8/18 13:27,496
12/8/18 13:27,503
12/8/18 13:27,504
12/8/18 13:27,484
12/8/18 13:27,501
12/8/18 13:27,517
12/8/18 13:27,521
12/8/18 13:27,521
12/8/18 13:27,521
12/8/18 13:27,517
12/8/18 13:27,515
12/8/18 13:27,516
12/8/18 13:27,515
12/8/18 13:27,510
12/8/18 13:27,513
12/8/18 13:27,508
12/8/18 13:27,510
12/8/18 13:27,508
12/8/18 13:27,510
12/8/18 13:27,507
12/8/18 13:27,509
12/8/18 13:27,508
12/8/18 13:27,506
12/8/18 13:27,507
12/8/18 13:27,510
12/8/18 13:27,510
12/8/18 13:27,509
12/8/18 13:27,515
12/8/18 13:27,509
12/8/18 13:27,501
12/8/18 13:27,501
12/8/18 13:27,504
12/8/18 13:27,508
12/8/18 13:27,510
12/8/18 13:27,497
12/8/18 13:27,493
12/8/18 13:27,511
12/8/18 13:27,519
12/8/18 13:27,521
12/8/18 13:27,518
12/8/18 13:27,517
12/8/18 13:27,513
12/8/18 13:27,510
12/8/18 13:27,515
12/8/18 13:27,508
12/8/18 13:27,498
12/8/18 13:27,499
12/8/18 13:27,500
12/8/18 13:27,504
12/8/18 13:27,509
12/8/18 13:27,511
12/8/18 13:27,509
12/8/18 13:27,502
12/8/18 13:27,481
12/8/18 13:27,495
12/8/18 13:27,527
12/8/18 13:27,507
12/8/18 13:27,504
12/8/18 13:27,507
12/8/18 13:27,510
12/8/18 13:27,512
12/8/18 13:27,513
12/8/18 13:27,512
12/8/18 13:27,510
12/8/18 13:27,488
12/8/18 13:27,493
12/8/18 13:27,568
12/8/18 13:27,586
12/8/18 13:27,611
12/8/18 13:27,537
12/8/18 13:27,497
12/8/18 13:27,491
12/8/18 13:27,487
12/8/18 13:27,489
12/8/18 13:27,500
12/8/18 13:27,507
12/8/18 13:27,486
12/8/18 13:27,490
12/8/18 13:27,494
12/8/18 13:27,504
12/8/18 13:27,503
12/8/18 13:27,493
12/8/18 13:27,509
12/8/18 13:27,488
12/8/18 13:27,479
12/8/18 13:27,482
12/8/18 13:27,486
12/8/18 13:27,492
12/8/18 13:27,496
12/8/18 13:27,500
12/8/18 13:27,503
12/8/18 13:27,505
12/8/18 13:27,507
12/8/18 13:27,508
12/8/18 13:27,509
12/8/18 13:27,511
12/8/18 13:27,502
12/8/18 13:27,484
12/8/18 13:27,519
12/8/18 13:27,513
12/8/18 13:27,508
12/8/18 13:27,510
12/8/18 13:27,513
12/8/18 13:27,515
12/8/18 13:27,512
12/8/18 13:27,514
12/8/18 13:27,514
12/8/18 13:27,514
12/8/18 13:27,516
12/8/18 13:27,513
12/8/18 13:27,514
12/8/18 13:27,513
12/8/18 13:27,511
12/8/18 13:27,511
12/8/18 13:27,510
12/8/18 13:27,509
12/8/18 13:27,507
12/8/18 13:27,509
12/8/18 13:27,509
12/8/18 13:27,509
12/8/18 13:27,509
12/8/18 13:27,509
12/8/18 13:27,510
12/8/18 13:27,509
12/8/18 13:27,509
12/8/18 13:27,507
12/8/18 13:27,509
12/8/18 13:27,508
12/8/18 13:27,509
12/8/18 13:27,507
12/8/18 13:27,511
12/8/18 13:27,508
12/8/18 13:27,508
12/8/18 13:27,508
12/8/18 13:27,511
12/8/18 13:27,509
12/8/18 13:27,509
12/8/18 13:27,510
12/8/18 13:27,511
12/8/18 13:27,509
12/8/18 13:27,509
12/8/18 13:27,507
12/8/18 13:27,510
12/8/18 13:27,510
12/8/18 13:27,509
12/8/18 13:27,510
12/8/18 13:27,509
12/8/18 13:27,509
12/8/18 13:27,508
12/8/18 13:27,506
12/8/18 13:27,509
12/8/18 13:27,508
12/8/18 13:27,509
12/8/18 13:27,506
12/8/18 13:27,507
12/8/18 13:27,508
12/8/18 13:27,508
12/8/18 13:27,508
12/8/18 13:27,506
12/8/18 13:27,521
12/8/18 13:27,499
12/8/18 13:27,467
12/8/18 13:27,489
12/8/18 13:27,508
12/8/18 13:27,518
12/8/18 13:27,519
12/8/18 13:27,519
12/8/18 13:27,518
12/8/18 13:27,515
12/8/18 13:27,511
12/8/18 13:27,514
12/8/18 13:27,510
12/8/18 13:27,509
12/8/18 13:27,508
12/8/18 13:27,508
12/8/18 13:27,507
12/8/18 13:27,507
12/8/18 13:27,509
12/8/18 13:27,508
12/8/18 13:27,506
12/8/18 13:27,507
12/8/18 13:27,506
12/8/18 13:27,526
12/8/18 13:27,606
12/8/18 13:27,605
12/8/18 13:27,531
12/8/18 13:27,472
12/8/18 13:27,467
12/8/18 13:27,479
12/8/18 13:27,476
12/8/18 13:27,489
12/8/18 13:27,505
12/8/18 13:27,489
12/8/18 13:27,492
12/8/18 13:27,498
12/8/18 13:27,505
12/8/18 13:27,495
12/8/18 13:27,491
12/8/18 13:27,489
12/8/18 13:27,490
12/8/18 13:27,493
12/8/18 13:27,496
12/8/18 13:27,499
12/8/18 13:27,501
12/8/18 13:27,505
12/8/18 13:27,505
12/8/18 13:27,505
12/8/18 13:27,508
12/8/18 13:27,509
12/8/18 13:27,509
12/8/18 13:27,510
12/8/18 13:27,507
12/8/18 13:27,510
12/8/18 13:27,508
12/8/18 13:27,510
12/8/18 13:27,509
12/8/18 13:27,509
12/8/18 13:27,510
12/8/18 13:27,509
12/8/18 13:27,509
12/8/18 13:27,511
12/8/18 13:27,510
12/8/18 13:27,510
12/8/18 13:27,509
12/8/18 13:27,509
12/8/18 13:27,509
12/8/18 13:27,506
12/8/18 13:27,509
12/8/18 13:27,506
12/8/18 13:27,521
12/8/18 13:27,505
12/8/18 13:27,497
12/8/18 13:27,502
12/8/18 13:27,505
12/8/18 13:27,485
12/8/18 13:27,499
12/8/18 13:27,517
12/8/18 13:27,524
12/8/18 13:27,523
12/8/18 13:27,521
12/8/18 13:27,519
12/8/18 13:27,515
12/8/18 13:27,516
12/8/18 13:27,513
12/8/18 13:27,511
12/8/18 13:27,511
12/8/18 13:27,512
12/8/18 13:27,509
12/8/18 13:27,508
12/8/18 13:27,508
12/8/18 13:27,508
12/8/18 13:27,508
12/8/18 13:27,509
12/8/18 13:27,507
12/8/18 13:27,507
12/8/18 13:27,509
12/8/18 13:27,510
12/8/18 13:27,510
12/8/18 13:27,508
12/8/18 13:27,509
12/8/18 13:27,507
12/8/18 13:27,509
12/8/18 13:27,510
12/8/18 13:27,507
12/8/18 13:27,507
12/8/18 13:27,508
12/8/18 13:27,509
12/8/18 13:27,508
12/8/18 13:27,507
12/8/18 13:27,509
12/8/18 13:27,507
12/8/18 13:27,507
12/8/18 13:27,510
12/8/18 13:27,509
12/8/18 13:27,507
12/8/18 13:27,508
12/8/18 13:27,508
12/8/18 13:27,507
12/8/18 13:27,507
12/8/18 13:27,508
12/8/18 13:27,507
12/8/18 13:27,509
12/8/18 13:27,508
12/8/18 13:27,506
12/8/18 13:27,507
12/8/18 13:27,506
12/8/18 13:27,505
12/8/18 13:27,506
12/8/18 13:27,505
12/8/18 13:27,508
12/8/18 13:27,507
12/8/18 13:27,503
12/8/18 13:27,482
12/8/18 13:27,495
12/8/18 13:27,526
12/8/18 13:27,510
12/8/18 13:27,507
12/8/18 13:27,555
12/8/18 13:27,573
12/8/18 13:27,611
12/8/18 13:27,537
12/8/18 13:27,494
12/8/18 13:27,477
12/8/18 13:27,492
12/8/18 13:27,489
12/8/18 13:27,505
12/8/18 13:27,495
12/8/18 13:27,498
12/8/18 13:27,501
12/8/18 13:27,500
12/8/18 13:27,505
12/8/18 13:27,503
12/8/18 13:27,493
12/8/18 13:27,488
12/8/18 13:27,487
12/8/18 13:27,486
12/8/18 13:27,490
12/8/18 13:27,493
12/8/18 13:27,494
12/8/18 13:27,499
12/8/18 13:27,500
12/8/18 13:27,502
12/8/18 13:27,506
12/8/18 13:27,506
12/8/18 13:27,510
12/8/18 13:27,505
12/8/18 13:27,510
12/8/18 13:27,509
12/8/18 13:27,511
12/8/18 13:27,508
12/8/18 13:27,507
12/8/18 13:27,497
12/8/18 13:27,488
12/8/18 13:27,509
12/8/18 13:27,519
12/8/18 13:27,520
12/8/18 13:27,518
12/8/18 13:27,515
12/8/18 13:27,518
12/8/18 13:27,514
12/8/18 13:27,502
12/8/18 13:27,504
12/8/18 13:27,509
12/8/18 13:27,510
12/8/18 13:27,514
12/8/18 13:27,513
12/8/18 13:27,513
12/8/18 13:27,513
12/8/18 13:27,510
12/8/18 13:27,511
12/8/18 13:27,509
12/8/18 13:27,511
12/8/18 13:27,509
12/8/18 13:27,511
12/8/18 13:27,511
12/8/18 13:27,510
12/8/18 13:27,509
12/8/18 13:27,508
12/8/18 13:27,507
12/8/18 13:27,509
12/8/18 13:27,508
12/8/18 13:27,509
12/8/18 13:27,509
12/8/18 13:27,509
12/8/18 13:27,508
12/8/18 13:27,507
12/8/18 13:27,509
12/8/18 13:27,508
12/8/18 13:27,510
12/8/18 13:27,511
12/8/18 13:27,510
12/8/18 13:27,510
12/8/18 13:27,509
12/8/18 13:27,508
12/8/18 13:27,510
12/8/18 13:27,507
12/8/18 13:27,508
12/8/18 13:27,514
12/8/18 13:27,499
12/8/18 13:27,500
12/8/18 13:27,496
12/8/18 13:27,482
12/8/18 13:27,504
12/8/18 13:27,520
12/8/18 13:27,519
12/8/18 13:27,521
12/8/18 13:27,519
12/8/18 13:27,516
12/8/18 13:27,516
12/8/18 13:27,516
12/8/18 13:27,510
12/8/18 13:27,511
12/8/18 13:27,507
12/8/18 13:27,507
12/8/18 13:27,509
12/8/18 13:27,506
12/8/18 13:27,506
12/8/18 13:27,505
12/8/18 13:27,505
12/8/18 13:27,509
12/8/18 13:27,507
12/8/18 13:27,497
12/8/18 13:27,498
12/8/18 13:27,502
12/8/18 13:27,505
12/8/18 13:27,506
12/8/18 13:27,505
12/8/18 13:27,506
12/8/18 13:27,509
12/8/18 13:27,510
12/8/18 13:27,510
12/8/18 13:27,511
12/8/18 13:27,510
12/8/18 13:27,509
12/8/18 13:27,509
12/8/18 13:27,527
12/8/18 13:27,586
12/8/18 13:27,605
12/8/18 13:27,544
12/8/18 13:27,485
12/8/18 13:27,474
12/8/18 13:27,485
12/8/18 13:27,481
12/8/18 13:27,489
12/8/18 13:27,500
12/8/18 13:27,504
12/8/18 13:27,486
12/8/18 13:27,494
12/8/18 13:27,504
12/8/18 13:27,504
12/8/18 13:27,498
12/8/18 13:27,496
12/8/18 13:27,490
12/8/18 13:27,490
12/8/18 13:27,490
12/8/18 13:27,491
12/8/18 13:27,495
12/8/18 13:27,495
12/8/18 13:27,499
12/8/18 13:27,501
12/8/18 13:27,503
12/8/18 13:27,504
12/8/18 13:27,504
12/8/18 13:27,508
12/8/18 13:27,510
12/8/18 13:27,510
12/8/18 13:27,510
12/8/18 13:27,508
12/8/18 13:27,509
12/8/18 13:27,487
12/8/18 13:27,498
12/8/18 13:27,523
12/8/18 13:27,513
12/8/18 13:27,509
12/8/18 13:27,511
12/8/18 13:27,513
12/8/18 13:27,516
12/8/18 13:27,515
12/8/18 13:27,518
12/8/18 13:27,515
12/8/18 13:27,515
12/8/18 13:27,514
12/8/18 13:27,512
12/8/18 13:27,511
12/8/18 13:27,510
12/8/18 13:27,510
12/8/18 13:27,510
12/8/18 13:27,507
12/8/18 13:27,508
12/8/18 13:27,507
12/8/18 13:27,508
12/8/18 13:27,509
12/8/18 13:27,519
12/8/18 13:27,509
12/8/18 13:27,499
12/8/18 13:27,500
12/8/18 13:27,478
12/8/18 13:27,501
12/8/18 13:27,519
12/8/18 13:27,521
12/8/18 13:27,522
12/8/18 13:27,520
12/8/18 13:27,518
12/8/18 13:27,517
12/8/18 13:27,513
12/8/18 13:27,514
12/8/18 13:27,513
12/8/18 13:27,510
12/8/18 13:27,511
12/8/18 13:27,509
12/8/18 13:27,508
12/8/18 13:27,510
12/8/18 13:27,509
12/8/18 13:27,509
12/8/18 13:27,508
12/8/18 13:27,508
12/8/18 13:27,507
12/8/18 13:27,508
12/8/18 13:27,508
12/8/18 13:27,509
12/8/18 13:27,508
12/8/18 13:27,506
12/8/18 13:27,506
12/8/18 13:27,510
12/8/18 13:27,506
12/8/18 13:27,505
12/8/18 13:27,504
12/8/18 13:27,504
12/8/18 13:27,500
12/8/18 13:27,510
12/8/18 13:27,500
12/8/18 13:27,500
12/8/18 13:27,505
12/8/18 13:27,508
12/8/18 13:27,509
12/8/18 13:27,510
12/8/18 13:27,489
12/8/18 13:27,493
12/8/18 13:36,508
12/8/18 13:36,509
12/8/18 13:36,504
12/8/18 13:36,508
12/8/18 13:36,510
12/8/18 13:36,506
12/8/18 13:36,512
12/8/18 13:36,505
12/8/18 13:36,510
12/8/18 13:36,512
12/8/18 13:36,506
12/8/18 13:36,513
12/8/18 13:36,506
12/8/18 13:36,509
12/8/18 13:36,509
12/8/18 13:36,506
12/8/18 13:36,505
12/8/18 13:36,511
12/8/18 13:36,501
12/8/18 13:36,501
12/8/18 13:36,497
12/8/18 13:36,488
12/8/18 13:36,504
12/8/18 13:36,524
12/8/18 13:36,523
12/8/18 13:36,519
12/8/18 13:36,524
12/8/18 13:36,514
12/8/18 13:36,518
12/8/18 13:36,514
12/8/18 13:36,511
12/8/18 13:36,515
12/8/18 13:36,506
12/8/18 13:36,511
12/8/18 13:36,508
12/8/18 13:36,507
12/8/18 13:36,513
12/8/18 13:36,506
12/8/18 13:36,510
12/8/18 13:36,508
12/8/18 13:36,505
12/8/18 13:36,512
12/8/18 13:36,505
12/8/18 13:36,513
12/8/18 13:36,509
12/8/18 13:36,507
12/8/18 13:36,509
12/8/18 13:36,503
12/8/18 13:36,513
12/8/18 13:36,510
12/8/18 13:36,508
12/8/18 13:36,511
12/8/18 13:36,504
12/8/18 13:36,512
12/8/18 13:36,508
12/8/18 13:36,507
12/8/18 13:36,510
12/8/18 13:36,506
12/8/18 13:36,511
12/8/18 13:36,508
12/8/18 13:36,507
12/8/18 13:36,510
12/8/18 13:36,505
12/8/18 13:36,513
12/8/18 13:36,507
12/8/18 13:36,509
12/8/18 13:36,509
12/8/18 13:36,506
12/8/18 13:36,513
12/8/18 13:36,505
12/8/18 13:36,507
12/8/18 13:36,509
12/8/18 13:36,505
12/8/18 13:36,511
12/8/18 13:36,506
12/8/18 13:36,508
12/8/18 13:36,508
12/8/18 13:36,503
12/8/18 13:36,511
12/8/18 13:36,503
12/8/18 13:36,509
12/8/18 13:36,509
12/8/18 13:36,504
12/8/18 13:36,512
12/8/18 13:36,505
12/8/18 13:36,508
12/8/18 13:36,507
12/8/18 13:36,505
12/8/18 13:36,510
12/8/18 13:36,495
12/8/18 13:36,481
12/8/18 13:36,507
12/8/18 13:36,510
12/8/18 13:36,511
12/8/18 13:36,505
12/8/18 13:36,512
12/8/18 13:36,515
12/8/18 13:36,511
12/8/18 13:36,518
12/8/18 13:36,508
12/8/18 13:36,515
12/8/18 13:36,510
12/8/18 13:36,509
12/8/18 13:36,514
12/8/18 13:36,507
12/8/18 13:36,510
12/8/18 13:36,514
12/8/18 13:36,545
12/8/18 13:36,607
12/8/18 13:36,566
12/8/18 13:36,504
12/8/18 13:36,477
12/8/18 13:36,482
12/8/18 13:36,502
12/8/18 13:36,491
12/8/18 13:36,492
12/8/18 13:36,484
12/8/18 13:36,483
12/8/18 13:36,502
12/8/18 13:36,493
12/8/18 13:36,493
12/8/18 13:36,488
12/8/18 13:36,488
12/8/18 13:36,494
12/8/18 13:36,490
12/8/18 13:36,501
12/8/18 13:36,501
12/8/18 13:36,504
12/8/18 13:36,510
12/8/18 13:36,503
12/8/18 13:36,512
12/8/18 13:36,506
12/8/18 13:36,508
12/8/18 13:36,513
12/8/18 13:36,505
12/8/18 13:36,513
12/8/18 13:36,509
12/8/18 13:36,509
12/8/18 13:36,510
12/8/18 13:36,506
12/8/18 13:36,513
12/8/18 13:36,506
12/8/18 13:36,487
12/8/18 13:36,494
12/8/18 13:36,507
12/8/18 13:36,522
12/8/18 13:36,517
12/8/18 13:36,518
12/8/18 13:36,519
12/8/18 13:36,510
12/8/18 13:36,515
12/8/18 13:36,508
12/8/18 13:36,509
12/8/18 13:36,512
12/8/18 13:36,494
12/8/18 13:36,504
12/8/18 13:36,501
12/8/18 13:36,510
12/8/18 13:36,513
12/8/18 13:36,510
12/8/18 13:36,517
12/8/18 13:36,509
12/8/18 13:36,514
12/8/18 13:36,514
12/8/18 13:36,509
12/8/18 13:36,514
12/8/18 13:36,508
12/8/18 13:36,512
12/8/18 13:36,511
12/8/18 13:36,506
12/8/18 13:36,511
12/8/18 13:36,506
12/8/18 13:36,511
12/8/18 13:36,510
12/8/18 13:36,506
12/8/18 13:36,513
12/8/18 13:36,504
12/8/18 13:36,511
12/8/18 13:36,510
12/8/18 13:36,507
12/8/18 13:36,513
12/8/18 13:36,505
12/8/18 13:36,511
12/8/18 13:36,508
12/8/18 13:36,506
12/8/18 13:36,513
12/8/18 13:36,503
12/8/18 13:36,511
12/8/18 13:36,508
12/8/18 13:36,506
12/8/18 13:36,510
12/8/18 13:36,503
12/8/18 13:36,511
12/8/18 13:36,509
12/8/18 13:36,506
12/8/18 13:36,513
12/8/18 13:36,503
12/8/18 13:36,512
12/8/18 13:36,507
12/8/18 13:36,506
12/8/18 13:36,511
12/8/18 13:36,504
12/8/18 13:36,510
12/8/18 13:36,505
12/8/18 13:36,486
12/8/18 13:36,495
12/8/18 13:36,506
12/8/18 13:36,518
12/8/18 13:36,515
12/8/18 13:36,516
12/8/18 13:36,517
12/8/18 13:36,509
12/8/18 13:36,515
12/8/18 13:36,508
12/8/18 13:36,507
12/8/18 13:36,510
12/8/18 13:36,503
12/8/18 13:36,511
12/8/18 13:36,502
12/8/18 13:36,508
12/8/18 13:36,507
12/8/18 13:36,491
12/8/18 13:36,505
12/8/18 13:36,502
12/8/18 13:36,507
12/8/18 13:36,511
12/8/18 13:36,509
12/8/18 13:36,515
12/8/18 13:36,509
12/8/18 13:36,511
12/8/18 13:36,515
12/8/18 13:36,507
12/8/18 13:36,513
12/8/18 13:36,506
12/8/18 13:36,548
12/8/18 13:36,572
12/8/18 13:36,595
12/8/18 13:36,526
12/8/18 13:36,486
12/8/18 13:36,482
12/8/18 13:36,504
12/8/18 13:36,483
12/8/18 13:36,497
12/8/18 13:36,506
12/8/18 13:36,492
12/8/18 13:36,482
12/8/18 13:36,483
12/8/18 13:36,496
12/8/18 13:36,499
12/8/18 13:36,495
12/8/18 13:36,490
12/8/18 13:36,490
12/8/18 13:36,501
12/8/18 13:36,491
12/8/18 13:36,498
12/8/18 13:36,499
12/8/18 13:36,478
12/8/18 13:36,495
12/8/18 13:36,520
12/8/18 13:36,515
12/8/18 13:36,511
12/8/18 13:36,509
12/8/18 13:36,518
12/8/18 13:36,512
12/8/18 13:36,520
12/8/18 13:36,515
12/8/18 13:36,513
12/8/18 13:36,517
12/8/18 13:36,511
12/8/18 13:36,515
12/8/18 13:36,511
12/8/18 13:36,510
12/8/18 13:36,513
12/8/18 13:36,505
12/8/18 13:36,511
12/8/18 13:36,504
12/8/18 13:36,506
12/8/18 13:36,510
12/8/18 13:36,504
12/8/18 13:36,510
12/8/18 13:36,508
12/8/18 13:36,507
12/8/18 13:36,511
12/8/18 13:36,504
12/8/18 13:36,511
12/8/18 13:36,507
12/8/18 13:36,506
12/8/18 13:36,510
12/8/18 13:36,505
12/8/18 13:36,512
12/8/18 13:36,507
12/8/18 13:36,508
12/8/18 13:36,513
12/8/18 13:36,507
12/8/18 13:36,514
12/8/18 13:36,508
12/8/18 13:36,509
12/8/18 13:36,511
12/8/18 13:36,504
12/8/18 13:36,513
12/8/18 13:36,505
12/8/18 13:36,482
12/8/18 13:36,500
12/8/18 13:36,513
12/8/18 13:36,522
12/8/18 13:36,517
12/8/18 13:36,518
12/8/18 13:36,516
12/8/18 13:36,511
12/8/18 13:36,516
12/8/18 13:36,509
12/8/18 13:36,511
12/8/18 13:36,511
12/8/18 13:36,507
12/8/18 13:36,513
12/8/18 13:36,505
12/8/18 13:36,509
12/8/18 13:36,509
12/8/18 13:36,505
12/8/18 13:36,512
12/8/18 13:36,505
12/8/18 13:36,508
12/8/18 13:36,509
12/8/18 13:36,505
12/8/18 13:36,511
12/8/18 13:36,502
12/8/18 13:36,507
12/8/18 13:36,507
12/8/18 13:36,504
12/8/18 13:36,516
12/8/18 13:36,505
12/8/18 13:36,500
12/8/18 13:36,502
12/8/18 13:36,502
12/8/18 13:36,511
12/8/18 13:36,506
12/8/18 13:36,513
12/8/18 13:36,511
12/8/18 13:36,508
12/8/18 13:36,514
12/8/18 13:36,506
12/8/18 13:36,513
12/8/18 13:36,507
12/8/18 13:36,507
12/8/18 13:36,512
12/8/18 13:36,502
12/8/18 13:36,510
12/8/18 13:36,507
12/8/18 13:36,505
12/8/18 13:36,511
12/8/18 13:36,504
12/8/18 13:36,511
12/8/18 13:36,505
12/8/18 13:36,506
12/8/18 13:36,510
12/8/18 13:36,500
12/8/18 13:36,509
12/8/18 13:36,505
12/8/18 13:36,506
12/8/18 13:36,510
12/8/18 13:36,505
12/8/18 13:36,513
12/8/18 13:36,505
12/8/18 13:36,507
12/8/18 13:36,511
12/8/18 13:36,556
12/8/18 13:36,585
12/8/18 13:36,589
12/8/18 13:36,519
12/8/18 13:36,487
12/8/18 13:36,475
12/8/18 13:36,501
12/8/18 13:36,493
12/8/18 13:36,484
12/8/18 13:36,486
12/8/18 13:36,482
12/8/18 13:36,488
12/8/18 13:36,486
12/8/18 13:36,475
12/8/18 13:36,483
12/8/18 13:36,489
12/8/18 13:36,502
12/8/18 13:36,499
12/8/18 13:36,509
12/8/18 13:36,512
12/8/18 13:36,511
12/8/18 13:36,518
12/8/18 13:36,509
12/8/18 13:36,514
12/8/18 13:36,513
12/8/18 13:36,508
12/8/18 13:36,515
12/8/18 13:36,505
12/8/18 13:36,512
12/8/18 13:36,511
12/8/18 13:36,506
12/8/18 13:36,513
12/8/18 13:36,505
12/8/18 13:36,509
12/8/18 13:36,508
12/8/18 13:36,506
12/8/18 13:36,511
12/8/18 13:36,502
12/8/18 13:36,510
12/8/18 13:36,508
12/8/18 13:36,505
12/8/18 13:36,512
12/8/18 13:36,504
12/8/18 13:36,511
12/8/18 13:36,508
12/8/18 13:36,507
12/8/18 13:36,509
12/8/18 13:36,504
12/8/18 13:36,511
12/8/18 13:36,508
12/8/18 13:36,507
12/8/18 13:36,511
12/8/18 13:36,504
12/8/18 13:36,512
12/8/18 13:36,508
12/8/18 13:36,508
12/8/18 13:36,511
12/8/18 13:36,505
12/8/18 13:36,505
12/8/18 13:36,482
12/8/18 13:36,504
12/8/18 13:36,520
12/8/18 13:36,518
12/8/18 13:36,522
12/8/18 13:36,518
12/8/18 13:36,514
12/8/18 13:36,515
12/8/18 13:36,507
12/8/18 13:36,515
12/8/18 13:36,508
12/8/18 13:36,509
12/8/18 13:36,513
12/8/18 13:36,504
12/8/18 13:36,514
12/8/18 13:36,506
12/8/18 13:36,508
12/8/18 13:36,512
12/8/18 13:36,505
12/8/18 13:36,511
12/8/18 13:36,505
12/8/18 13:36,509
12/8/18 13:36,510
12/8/18 13:36,506
12/8/18 13:36,512
12/8/18 13:36,504
12/8/18 13:36,507
12/8/18 13:36,509
12/8/18 13:36,505
12/8/18 13:36,505
12/8/18 13:36,515
12/8/18 13:36,501
12/8/18 13:36,501
12/8/18 13:36,499
12/8/18 13:36,510
12/8/18 13:36,506
12/8/18 13:36,514
12/8/18 13:36,512
12/8/18 13:36,508
12/8/18 13:36,515
12/8/18 13:36,507
12/8/18 13:36,513
12/8/18 13:36,510
12/8/18 13:36,507
12/8/18 13:36,513
12/8/18 13:36,503
12/8/18 13:36,510
12/8/18 13:36,505
12/8/18 13:36,495
12/8/18 13:36,486
12/8/18 13:36,502
12/8/18 13:36,515
12/8/18 13:36,516
12/8/18 13:36,512
12/8/18 13:36,519
12/8/18 13:36,507
12/8/18 13:36,511
12/8/18 13:36,508
12/8/18 13:36,507
12/8/18 13:36,513
12/8/18 13:36,504
12/8/18 13:36,510
12/8/18 13:36,506
12/8/18 13:36,506
12/8/18 13:36,510
12/8/18 13:36,511
12/8/18 13:36,546
12/8/18 13:36,602
12/8/18 13:36,560
12/8/18 13:36,496
12/8/18 13:36,472
12/8/18 13:36,489
12/8/18 13:36,505
12/8/18 13:36,510
12/8/18 13:36,480
12/8/18 13:36,481
12/8/18 13:36,506
12/8/18 13:36,506
12/8/18 13:36,495
12/8/18 13:36,492
12/8/18 13:36,479
12/8/18 13:36,485
12/8/18 13:36,484
12/8/18 13:36,490
12/8/18 13:36,498
12/8/18 13:36,495
12/8/18 13:36,504
12/8/18 13:36,503
12/8/18 13:36,506
12/8/18 13:36,511
12/8/18 13:36,504
12/8/18 13:36,513
12/8/18 13:36,503
12/8/18 13:36,513
12/8/18 13:36,502
12/8/18 13:36,498
12/8/18 13:36,510
12/8/18 13:36,507
12/8/18 13:36,514
12/8/18 13:36,514
12/8/18 13:36,509
12/8/18 13:36,517
12/8/18 13:36,509
12/8/18 13:36,514
12/8/18 13:36,513
12/8/18 13:36,508
12/8/18 13:36,515
12/8/18 13:36,506
12/8/18 13:36,510
12/8/18 13:36,509
12/8/18 13:36,506
12/8/18 13:36,514
12/8/18 13:36,507
12/8/18 13:36,510
12/8/18 13:36,509
12/8/18 13:36,507
12/8/18 13:36,511
12/8/18 13:36,505
12/8/18 13:36,512
12/8/18 13:36,508
12/8/18 13:36,507
12/8/18 13:36,514
12/8/18 13:36,505
12/8/18 13:36,511
12/8/18 13:36,509
12/8/18 13:36,507
12/8/18 13:36,512
12/8/18 13:36,506
12/8/18 13:36,514
12/8/18 13:36,509
12/8/18 13:36,508
12/8/18 13:36,511
12/8/18 13:36,505
12/8/18 13:36,514
12/8/18 13:36,507
12/8/18 13:36,507
12/8/18 13:36,513
12/8/18 13:36,497
12/8/18 13:36,485
12/8/18 13:36,504
12/8/18 13:36,515
12/8/18 13:36,523
12/8/18 13:36,516
12/8/18 13:36,522
12/8/18 13:36,514
12/8/18 13:36,511
12/8/18 13:36,514
12/8/18 13:36,506
12/8/18 13:36,510
12/8/18 13:36,517
12/8/18 13:36,503
12/8/18 13:36,501
12/8/18 13:36,499
12/8/18 13:36,510
12/8/18 13:36,507
12/8/18 13:36,511
12/8/18 13:36,515
12/8/18 13:36,507
12/8/18 13:36,514
12/8/18 13:36,508
12/8/18 13:36,511
12/8/18 13:36,511
12/8/18 13:36,505
12/8/18 13:36,512
12/8/18 13:36,504
12/8/18 13:36,509
12/8/18 13:36,507
12/8/18 13:36,502
12/8/18 13:36,511
12/8/18 13:36,504
12/8/18 13:36,507
12/8/18 13:36,508
12/8/18 13:36,503
12/8/18 13:36,510
12/8/18 13:36,504
12/8/18 13:36,507
12/8/18 13:45,472
12/8/18 13:45,471
12/8/18 13:45,484
12/8/18 13:45,478
12/8/18 13:45,493
12/8/18 13:45,502
12/8/18 13:45,500
12/8/18 13:45,509
12/8/18 13:45,479
12/8/18 13:45,486
12/8/18 13:45,504
12/8/18 13:45,501
12/8/18 13:45,496
12/8/18 13:45,493
12/8/18 13:45,488
12/8/18 13:45,488
12/8/18 13:45,493
12/8/18 13:45,496
12/8/18 13:45,496
12/8/18 13:45,499
12/8/18 13:45,498
12/8/18 13:45,477
12/8/18 13:45,502
12/8/18 13:45,514
12/8/18 13:45,512
12/8/18 13:45,527
12/8/18 13:45,508
12/8/18 13:45,508
12/8/18 13:45,509
12/8/18 13:45,513
12/8/18 13:45,516
12/8/18 13:45,514
12/8/18 13:45,514
12/8/18 13:45,513
12/8/18 13:45,513
12/8/18 13:45,514
12/8/18 13:45,511
12/8/18 13:45,511
12/8/18 13:45,510
12/8/18 13:45,511
12/8/18 13:45,508
12/8/18 13:45,507
12/8/18 13:45,510
12/8/18 13:45,509
12/8/18 13:45,509
12/8/18 13:45,509
12/8/18 13:45,508
12/8/18 13:45,509
12/8/18 13:45,509
12/8/18 13:45,510
12/8/18 13:45,508
12/8/18 13:45,509
12/8/18 13:45,510
12/8/18 13:45,507
12/8/18 13:45,508
12/8/18 13:45,509
12/8/18 13:45,503
12/8/18 13:45,481
12/8/18 13:45,494
12/8/18 13:45,524
12/8/18 13:45,510
12/8/18 13:45,506
12/8/18 13:45,514
12/8/18 13:45,513
12/8/18 13:45,516
12/8/18 13:45,516
12/8/18 13:45,506
12/8/18 13:45,497
12/8/18 13:45,492
12/8/18 13:45,509
12/8/18 13:45,518
12/8/18 13:45,518
12/8/18 13:45,522
12/8/18 13:45,519
12/8/18 13:45,518
12/8/18 13:45,518
12/8/18 13:45,514
12/8/18 13:45,515
12/8/18 13:45,513
12/8/18 13:45,510
12/8/18 13:45,510
12/8/18 13:45,507
12/8/18 13:45,510
12/8/18 13:45,507
12/8/18 13:45,509
12/8/18 13:45,507
12/8/18 13:45,507
12/8/18 13:45,508
12/8/18 13:45,506
12/8/18 13:45,508
12/8/18 13:45,505
12/8/18 13:45,506
12/8/18 13:45,505
12/8/18 13:45,505
12/8/18 13:45,507
12/8/18 13:45,502
12/8/18 13:45,507
12/8/18 13:45,508
12/8/18 13:45,507
12/8/18 13:45,508
12/8/18 13:45,507
12/8/18 13:45,506
12/8/18 13:45,478
12/8/18 13:45,487
12/8/18 13:45,499
12/8/18 13:45,508
12/8/18 13:45,515
12/8/18 13:45,518
12/8/18 13:45,516
12/8/18 13:45,517
12/8/18 13:45,515
12/8/18 13:45,513
12/8/18 13:45,513
12/8/18 13:45,509
12/8/18 13:45,513
12/8/18 13:45,507
12/8/18 13:45,507
12/8/18 13:45,509
12/8/18 13:45,508
12/8/18 13:45,507
12/8/18 13:45,506
12/8/18 13:45,507
12/8/18 13:45,507
12/8/18 13:45,506
12/8/18 13:45,508
12/8/18 13:45,507
12/8/18 13:45,507
12/8/18 13:45,507
12/8/18 13:45,508
12/8/18 13:45,574
12/8/18 13:45,624
12/8/18 13:45,569
12/8/18 13:45,486
12/8/18 13:45,468
12/8/18 13:45,481
12/8/18 13:45,495
12/8/18 13:45,508
12/8/18 13:45,503
12/8/18 13:45,491
12/8/18 13:45,482
12/8/18 13:45,469
12/8/18 13:45,472
12/8/18 13:45,482
12/8/18 13:45,478
12/8/18 13:45,484
12/8/18 13:45,487
12/8/18 13:45,495
12/8/18 13:45,500
12/8/18 13:45,501
12/8/18 13:45,509
12/8/18 13:45,510
12/8/18 13:45,511
12/8/18 13:45,513
12/8/18 13:45,510
12/8/18 13:45,511
12/8/18 13:45,512
12/8/18 13:45,511
12/8/18 13:45,512
12/8/18 13:45,511
12/8/18 13:45,514
12/8/18 13:45,511
12/8/18 13:45,510
12/8/18 13:45,510
12/8/18 13:45,510
12/8/18 13:45,510
12/8/18 13:45,509
12/8/18 13:45,506
12/8/18 13:45,517
12/8/18 13:45,497
12/8/18 13:45,499
12/8/18 13:45,503
12/8/18 13:45,507
12/8/18 13:45,481
12/8/18 13:45,507
12/8/18 13:45,523
12/8/18 13:45,524
12/8/18 13:45,525
12/8/18 13:45,521
12/8/18 13:45,518
12/8/18 13:45,517
12/8/18 13:45,512
12/8/18 13:45,513
12/8/18 13:45,513
12/8/18 13:45,510
12/8/18 13:45,509
12/8/18 13:45,510
12/8/18 13:45,507
12/8/18 13:45,509
12/8/18 13:45,508
12/8/18 13:45,509
12/8/18 13:45,506
12/8/18 13:45,509
12/8/18 13:45,509
12/8/18 13:45,508
12/8/18 13:45,509
12/8/18 13:45,507
12/8/18 13:45,508
12/8/18 13:45,509
12/8/18 13:45,509
12/8/18 13:45,509
12/8/18 13:45,507
12/8/18 13:45,510
12/8/18 13:45,509
12/8/18 13:45,508
12/8/18 13:45,509
12/8/18 13:45,507
12/8/18 13:45,509
12/8/18 13:45,509
12/8/18 13:45,507
12/8/18 13:45,510
12/8/18 13:45,507
12/8/18 13:45,510
12/8/18 13:45,503
12/8/18 13:45,518
12/8/18 13:45,499
12/8/18 13:45,495
12/8/18 13:45,503
12/8/18 13:45,506
12/8/18 13:45,510
12/8/18 13:45,514
12/8/18 13:45,512
12/8/18 13:45,513
12/8/18 13:45,512
12/8/18 13:45,511
12/8/18 13:45,512
12/8/18 13:45,509
12/8/18 13:45,510
12/8/18 13:45,508
12/8/18 13:45,508
12/8/18 13:45,509
12/8/18 13:45,507
12/8/18 13:45,508
12/8/18 13:45,507
12/8/18 13:45,507
12/8/18 13:45,507
12/8/18 13:45,505
12/8/18 13:45,508
12/8/18 13:45,506
12/8/18 13:45,506
12/8/18 13:45,506
12/8/18 13:45,505
12/8/18 13:45,507
12/8/18 13:45,507
12/8/18 13:45,508
12/8/18 13:45,509
12/8/18 13:45,506
12/8/18 13:45,507
12/8/18 13:45,506
12/8/18 13:45,507
12/8/18 13:45,481
12/8/18 13:45,489
12/8/18 13:45,515
12/8/18 13:45,571
12/8/18 13:45,639
12/8/18 13:45,571
12/8/18 13:45,492
12/8/18 13:45,478
12/8/18 13:45,487
12/8/18 13:45,508
12/8/18 13:45,486
12/8/18 13:45,483
12/8/18 13:45,488
12/8/18 13:45,490
12/8/18 13:45,488
12/8/18 13:45,484
12/8/18 13:45,488
12/8/18 13:45,486
12/8/18 13:45,484
12/8/18 13:45,489
12/8/18 13:45,494
12/8/18 13:45,498
12/8/18 13:45,505
12/8/18 13:45,506
12/8/18 13:45,510
12/8/18 13:45,509
12/8/18 13:45,509
12/8/18 13:45,511
12/8/18 13:45,510
12/8/18 13:45,505
12/8/18 13:45,518
12/8/18 13:45,500
12/8/18 13:45,501
12/8/18 13:45,503
12/8/18 13:45,509
12/8/18 13:45,511
12/8/18 13:45,494
12/8/18 13:45,496
12/8/18 13:45,516
12/8/18 13:45,524
12/8/18 13:45,523
12/8/18 13:45,520
12/8/18 13:45,519
12/8/18 13:45,515
12/8/18 13:45,513
12/8/18 13:45,513
12/8/18 13:45,511
12/8/18 13:45,509
12/8/18 13:45,507
12/8/18 13:45,511
12/8/18 13:45,506
12/8/18 13:45,506
12/8/18 13:45,508
12/8/18 13:45,506
12/8/18 13:45,507
12/8/18 13:45,508
12/8/18 13:45,508
12/8/18 13:45,508
12/8/18 13:45,508
12/8/18 13:45,509
12/8/18 13:45,507
12/8/18 13:45,509
12/8/18 13:45,508
12/8/18 13:45,508
12/8/18 13:45,509
12/8/18 13:45,508
12/8/18 13:45,509
12/8/18 13:45,501
12/8/18 13:45,514
12/8/18 13:45,498
12/8/18 13:45,500
12/8/18 13:45,503
12/8/18 13:45,510
12/8/18 13:45,512
12/8/18 13:45,515
12/8/18 13:45,513
12/8/18 13:45,505
12/8/18 13:45,484
12/8/18 13:45,509
12/8/18 13:45,521
12/8/18 13:45,521
12/8/18 13:45,524
12/8/18 13:45,518
12/8/18 13:45,515
12/8/18 13:45,514
12/8/18 13:45,510
12/8/18 13:45,510
12/8/18 13:45,510
12/8/18 13:45,506
12/8/18 13:45,508
12/8/18 13:45,504
12/8/18 13:45,506
12/8/18 13:45,507
12/8/18 13:45,506
12/8/18 13:45,510
12/8/18 13:45,504
12/8/18 13:45,504
12/8/18 13:45,509
12/8/18 13:45,507
12/8/18 13:45,507
12/8/18 13:45,505
12/8/18 13:45,508
12/8/18 13:45,507
12/8/18 13:45,506
12/8/18 13:45,507
12/8/18 13:45,506
12/8/18 13:45,508
12/8/18 13:45,507
12/8/18 13:45,507
12/8/18 13:45,507
12/8/18 13:45,504
12/8/18 13:45,508
12/8/18 13:45,505
12/8/18 13:45,507
12/8/18 13:45,507
12/8/18 13:45,507
12/8/18 13:45,506
12/8/18 13:45,514
12/8/18 13:45,500
12/8/18 13:45,466
12/8/18 13:45,488
12/8/18 13:45,514
12/8/18 13:45,521
12/8/18 13:45,522
12/8/18 13:45,522
12/8/18 13:45,518
12/8/18 13:45,517
12/8/18 13:45,513
12/8/18 13:45,513
12/8/18 13:45,514
12/8/18 13:45,509
12/8/18 13:45,514
12/8/18 13:45,564
12/8/18 13:45,577
12/8/18 13:45,609
12/8/18 13:45,514
12/8/18 13:45,475
12/8/18 13:45,469
12/8/18 13:45,490
12/8/18 13:45,488
12/8/18 13:45,491
12/8/18 13:45,495
12/8/18 13:45,485
12/8/18 13:45,485
12/8/18 13:45,491
12/8/18 13:45,489
12/8/18 13:45,485
12/8/18 13:45,483
12/8/18 13:45,488
12/8/18 13:45,493
12/8/18 13:45,496
12/8/18 13:45,505
12/8/18 13:45,505
12/8/18 13:45,508
12/8/18 13:45,507
12/8/18 13:45,507
12/8/18 13:45,511
12/8/18 13:45,509
12/8/18 13:45,511
12/8/18 13:45,510
12/8/18 13:45,510
12/8/18 13:45,510
12/8/18 13:45,508
12/8/18 13:45,510
12/8/18 13:45,510
12/8/18 13:45,509
12/8/18 13:45,509
12/8/18 13:45,508
12/8/18 13:45,509
12/8/18 13:45,508
12/8/18 13:45,507
12/8/18 13:45,509
12/8/18 13:45,508
12/8/18 13:45,510
12/8/18 13:45,508
12/8/18 13:45,509
12/8/18 13:45,509
12/8/18 13:45,508
12/8/18 13:45,509
12/8/18 13:45,509
12/8/18 13:45,508
12/8/18 13:45,510
12/8/18 13:45,507
12/8/18 13:45,512
12/8/18 13:45,510
12/8/18 13:45,509
12/8/18 13:45,509
12/8/18 13:45,507
12/8/18 13:45,512
12/8/18 13:45,510
12/8/18 13:45,509
12/8/18 13:45,512
12/8/18 13:45,509
12/8/18 13:45,511
12/8/18 13:45,508
12/8/18 13:45,509
12/8/18 13:45,511
12/8/18 13:45,509
12/8/18 13:45,509
12/8/18 13:45,509
12/8/18 13:45,507
12/8/18 13:45,510
12/8/18 13:45,509
12/8/18 13:45,513
12/8/18 13:45,509
12/8/18 13:45,509
12/8/18 13:45,510
12/8/18 13:45,509
12/8/18 13:45,508
12/8/18 13:45,509
12/8/18 13:45,510
12/8/18 13:45,502
12/8/18 13:45,518
12/8/18 13:45,499
12/8/18 13:45,492
12/8/18 13:45,474
12/8/18 13:45,502
12/8/18 13:45,518
12/8/18 13:45,523
12/8/18 13:45,521
12/8/18 13:45,520
12/8/18 13:45,520
12/8/18 13:45,515
12/8/18 13:45,515
12/8/18 13:45,511
12/8/18 13:45,511
12/8/18 13:45,508
12/8/18 13:45,506
12/8/18 13:45,509
12/8/18 13:45,507
12/8/18 13:45,507
12/8/18 13:45,506
12/8/18 13:45,506
12/8/18 13:45,507
12/8/18 13:45,504
12/8/18 13:45,508
12/8/18 13:45,505
12/8/18 13:45,505
12/8/18 13:45,503
12/8/18 13:45,505
12/8/18 13:45,495
12/8/18 13:45,497
12/8/18 13:45,502
12/8/18 13:45,508
12/8/18 13:45,509
12/8/18 13:45,511
12/8/18 13:45,509
12/8/18 13:45,511
12/8/18 13:45,513
12/8/18 13:45,508
12/8/18 13:45,511
12/8/18 13:45,509
12/8/18 13:45,506
12/8/18 13:45,508
12/8/18 13:45,508
12/8/18 13:45,509
12/8/18 13:45,508
12/8/18 13:45,506
12/8/18 13:45,510
12/8/18 13:45,506
12/8/18 13:45,507
12/8/18 13:45,507
12/8/18 13:45,559
12/8/18 13:45,594
12/8/18 13:45,602
12/8/18 13:45,512
12/8/18 13:45,477
12/8/18 13:45,457
12/8/18 13:45,473
12/8/18 13:45,484
12/8/18 13:45,487
12/8/18 13:45,494
12/8/18 13:45,494
12/8/18 13:45,502
12/8/18 13:45,500
12/8/18 13:45,498
12/8/18 13:45,496
12/8/18 13:45,489
12/8/18 13:45,496
12/8/18 13:45,506
12/8/18 13:45,502
12/8/18 13:45,497
12/8/18 13:45,501
12/8/18 13:45,504
12/8/18 13:45,504
12/8/18 13:45,509
12/8/18 13:45,509
12/8/18 13:45,510
12/8/18 13:45,508
12/8/18 13:45,508
12/8/18 13:45,513
12/8/18 13:45,509
12/8/18 13:45,509
12/8/18 13:45,511
12/8/18 13:45,508
12/8/18 13:45,512
12/8/18 13:45,509
12/8/18 13:45,509
12/8/18 13:45,509
12/8/18 13:45,507
12/8/18 13:45,509
12/8/18 13:45,508
12/8/18 13:45,509
12/8/18 13:45,508
12/8/18 13:45,508
12/8/18 13:45,510
12/8/18 13:45,508
12/8/18 13:45,508
12/8/18 13:45,509
12/8/18 13:45,508
12/8/18 13:45,509
12/8/18 13:45,506
12/8/18 13:45,507
12/8/18 13:45,509
12/8/18 13:45,507
12/8/18 13:45,508
12/8/18 13:45,508
12/8/18 13:45,511
12/8/18 13:45,511
12/8/18 13:45,510
12/8/18 13:45,510
12/8/18 13:45,508
12/8/18 13:45,509
12/8/18 13:45,509
12/8/18 13:45,509
12/8/18 13:45,508
12/8/18 13:45,510
12/8/18 13:45,508
12/8/18 13:45,480
12/8/18 13:45,480
12/8/18 13:45,508
12/8/18 13:45,519
12/8/18 13:45,524
12/8/18 13:45,521
12/8/18 13:45,522
12/8/18 13:45,519
12/8/18 13:45,516
12/8/18 13:45,516
12/8/18 13:45,513
12/8/18 13:45,511
12/8/18 13:45,510
12/8/18 13:45,508
12/8/18 13:45,510
12/8/18 13:45,509
12/8/18 13:45,510
12/8/18 13:45,509
12/8/18 13:45,506
12/8/18 13:45,508
12/8/18 13:45,506
12/8/18 13:45,506
12/8/18 13:45,508
12/8/18 13:54,507
12/8/18 13:54,507
12/8/18 13:54,510
12/8/18 13:54,508
12/8/18 13:54,509
12/8/18 13:54,508
12/8/18 13:54,507
12/8/18 13:54,510
12/8/18 13:54,508
12/8/18 13:54,509
12/8/18 13:54,508
12/8/18 13:54,507
12/8/18 13:54,510
12/8/18 13:54,508
12/8/18 13:54,507
12/8/18 13:54,508
12/8/18 13:54,508
12/8/18 13:54,509
12/8/18 13:54,508
12/8/18 13:54,509
12/8/18 13:54,510
12/8/18 13:54,507
12/8/18 13:54,508
12/8/18 13:54,506
12/8/18 13:54,509
12/8/18 13:54,508
12/8/18 13:54,506
12/8/18 13:54,508
12/8/18 13:54,506
12/8/18 13:54,509
12/8/18 13:54,507
12/8/18 13:54,506
12/8/18 13:54,508
12/8/18 13:54,505
12/8/18 13:54,509
12/8/18 13:54,505
12/8/18 13:54,501
12/8/18 13:54,506
12/8/18 13:54,476
12/8/18 13:54,497
12/8/18 13:54,510
12/8/18 13:54,501
12/8/18 13:54,501
12/8/18 13:54,507
12/8/18 13:54,506
12/8/18 13:54,478
12/8/18 13:54,521
12/8/18 13:54,538
12/8/18 13:54,536
12/8/18 13:54,534
12/8/18 13:54,528
12/8/18 13:54,528
12/8/18 13:54,602
12/8/18 13:54,625
12/8/18 13:54,554
12/8/18 13:54,475
12/8/18 13:54,470
12/8/18 13:54,488
12/8/18 13:54,492
12/8/18 13:54,484
12/8/18 13:54,489
12/8/18 13:54,489
12/8/18 13:54,486
12/8/18 13:54,483
12/8/18 13:54,480
12/8/18 13:54,482
12/8/18 13:54,487
12/8/18 13:54,488
12/8/18 13:54,480
12/8/18 13:54,503
12/8/18 13:54,487
12/8/18 13:54,491
12/8/18 13:54,501
12/8/18 13:54,507
12/8/18 13:54,513
12/8/18 13:54,515
12/8/18 13:54,514
12/8/18 13:54,515
12/8/18 13:54,514
12/8/18 13:54,513
12/8/18 13:54,511
12/8/18 13:54,513
12/8/18 13:54,512
12/8/18 13:54,510
12/8/18 13:54,510
12/8/18 13:54,507
12/8/18 13:54,495
12/8/18 13:54,484
12/8/18 13:54,511
12/8/18 13:54,519
12/8/18 13:54,519
12/8/18 13:54,517
12/8/18 13:54,516
12/8/18 13:54,513
12/8/18 13:54,514
12/8/18 13:54,508
12/8/18 13:54,508
12/8/18 13:54,510
12/8/18 13:54,508
12/8/18 13:54,508
12/8/18 13:54,508
12/8/18 13:54,508
12/8/18 13:54,508
12/8/18 13:54,508
12/8/18 13:54,508
12/8/18 13:54,506
12/8/18 13:54,510
12/8/18 13:54,508
12/8/18 13:54,507
12/8/18 13:54,510
12/8/18 13:54,508
12/8/18 13:54,510
12/8/18 13:54,509
12/8/18 13:54,508
12/8/18 13:54,510
12/8/18 13:54,506
12/8/18 13:54,510
12/8/18 13:54,507
12/8/18 13:54,509
12/8/18 13:54,510
12/8/18 13:54,509
12/8/18 13:54,511
12/8/18 13:54,509
12/8/18 13:54,508
12/8/18 13:54,509
12/8/18 13:54,506
12/8/18 13:54,510
12/8/18 13:54,509
12/8/18 13:54,508
12/8/18 13:54,509
12/8/18 13:54,506
12/8/18 13:54,510
12/8/18 13:54,500
12/8/18 13:54,513
12/8/18 13:54,499
12/8/18 13:54,496
12/8/18 13:54,506
12/8/18 13:54,508
12/8/18 13:54,511
12/8/18 13:54,510
12/8/18 13:54,486
12/8/18 13:54,501
12/8/18 13:54,517
12/8/18 13:54,522
12/8/18 13:54,520
12/8/18 13:54,519
12/8/18 13:54,518
12/8/18 13:54,514
12/8/18 13:54,512
12/8/18 13:54,511
12/8/18 13:54,509
12/8/18 13:54,509
12/8/18 13:54,507
12/8/18 13:54,509
12/8/18 13:54,506
12/8/18 13:54,506
12/8/18 13:54,505
12/8/18 13:54,506
12/8/18 13:54,506
12/8/18 13:54,505
12/8/18 13:54,505
12/8/18 13:54,509
12/8/18 13:54,506
12/8/18 13:54,506
12/8/18 13:54,506
12/8/18 13:54,506
12/8/18 13:54,505
12/8/18 13:54,505
12/8/18 13:54,508
12/8/18 13:54,507
12/8/18 13:54,504
12/8/18 13:54,510
12/8/18 13:54,506
12/8/18 13:54,508
12/8/18 13:54,507
12/8/18 13:54,507
12/8/18 13:54,508
12/8/18 13:54,506
12/8/18 13:54,509
12/8/18 13:54,507
12/8/18 13:54,506
12/8/18 13:54,508
12/8/18 13:54,506
12/8/18 13:54,509
12/8/18 13:54,507
12/8/18 13:54,508
12/8/18 13:54,509
12/8/18 13:54,565
12/8/18 13:54,602
12/8/18 13:54,604
12/8/18 13:54,492
12/8/18 13:54,475
12/8/18 13:54,471
12/8/18 13:54,500
12/8/18 13:54,525
12/8/18 13:54,475
12/8/18 13:54,460
12/8/18 13:54,470
12/8/18 13:54,479
12/8/18 13:54,487
12/8/18 13:54,488
12/8/18 13:54,494
12/8/18 13:54,497
12/8/18 13:54,506
12/8/18 13:54,506
12/8/18 13:54,505
12/8/18 13:54,507
12/8/18 13:54,505
12/8/18 13:54,508
12/8/18 13:54,509
12/8/18 13:54,511
12/8/18 13:54,510
12/8/18 13:54,509
12/8/18 13:54,512
12/8/18 13:54,511
12/8/18 13:54,509
12/8/18 13:54,508
12/8/18 13:54,509
12/8/18 13:54,509
12/8/18 13:54,508
12/8/18 13:54,509
12/8/18 13:54,507
12/8/18 13:54,507
12/8/18 13:54,510
12/8/18 13:54,507
12/8/18 13:54,508
12/8/18 13:54,508
12/8/18 13:54,508
12/8/18 13:54,510
12/8/18 13:54,507
12/8/18 13:54,509
12/8/18 13:54,494
12/8/18 13:54,484
12/8/18 13:54,519
12/8/18 13:54,506
12/8/18 13:54,507
12/8/18 13:54,511
12/8/18 13:54,515
12/8/18 13:54,517
12/8/18 13:54,516
12/8/18 13:54,514
12/8/18 13:54,514
12/8/18 13:54,514
12/8/18 13:54,514
12/8/18 13:54,511
12/8/18 13:54,513
12/8/18 13:54,511
12/8/18 13:54,511
12/8/18 13:54,511
12/8/18 13:54,509
12/8/18 13:54,511
12/8/18 13:54,508
12/8/18 13:54,508
12/8/18 13:54,511
12/8/18 13:54,507
12/8/18 13:54,510
12/8/18 13:54,509
12/8/18 13:54,510
12/8/18 13:54,509
12/8/18 13:54,507
12/8/18 13:54,510
12/8/18 13:54,509
12/8/18 13:54,507
12/8/18 13:54,510
12/8/18 13:54,508
12/8/18 13:54,511
12/8/18 13:54,508
12/8/18 13:54,507
12/8/18 13:54,509
12/8/18 13:54,508
12/8/18 13:54,507
12/8/18 13:54,501
12/8/18 13:54,513
12/8/18 13:54,498
12/8/18 13:54,485
12/8/18 13:54,484
12/8/18 13:54,507
12/8/18 13:54,516
12/8/18 13:54,521
12/8/18 13:54,522
12/8/18 13:54,522
12/8/18 13:54,518
12/8/18 13:54,517
12/8/18 13:54,516
12/8/18 13:54,511
12/8/18 13:54,510
12/8/18 13:54,507
12/8/18 13:54,509
12/8/18 13:54,508
12/8/18 13:54,505
12/8/18 13:54,507
12/8/18 13:54,506
12/8/18 13:54,506
12/8/18 13:54,506
12/8/18 13:54,507
12/8/18 13:54,507
12/8/18 13:54,506
12/8/18 13:54,508
12/8/18 13:54,507
12/8/18 13:54,505
12/8/18 13:54,506
12/8/18 13:54,505
12/8/18 13:54,507
12/8/18 13:54,507
12/8/18 13:54,505
12/8/18 13:54,506
12/8/18 13:54,506
12/8/18 13:54,508
12/8/18 13:54,508
12/8/18 13:54,506
12/8/18 13:54,510
12/8/18 13:54,506
12/8/18 13:54,508
12/8/18 13:54,508
12/8/18 13:54,506
12/8/18 13:54,508
12/8/18 13:54,505
12/8/18 13:54,509
12/8/18 13:54,510
12/8/18 13:54,560
12/8/18 13:54,618
12/8/18 13:54,577
12/8/18 13:54,494
12/8/18 13:54,484
12/8/18 13:54,472
12/8/18 13:54,493
12/8/18 13:54,504
12/8/18 13:54,506
12/8/18 13:54,469
12/8/18 13:54,473
12/8/18 13:54,479
12/8/18 13:54,482
12/8/18 13:54,494
12/8/18 13:54,493
12/8/18 13:54,494
12/8/18 13:54,500
12/8/18 13:54,503
12/8/18 13:54,505
12/8/18 13:54,504
12/8/18 13:54,504
12/8/18 13:54,508
12/8/18 13:54,508
12/8/18 13:54,505
12/8/18 13:54,516
12/8/18 13:54,502
12/8/18 13:54,502
12/8/18 13:54,503
12/8/18 13:54,509
12/8/18 13:54,511
12/8/18 13:54,512
12/8/18 13:54,512
12/8/18 13:54,512
12/8/18 13:54,513
12/8/18 13:54,512
12/8/18 13:54,510
12/8/18 13:54,509
12/8/18 13:54,510
12/8/18 13:54,511
12/8/18 13:54,507
12/8/18 13:54,508
12/8/18 13:54,509
12/8/18 13:54,507
12/8/18 13:54,510
12/8/18 13:54,507
12/8/18 13:54,508
12/8/18 13:54,508
12/8/18 13:54,476
12/8/18 13:54,507
12/8/18 13:54,505
12/8/18 13:54,507
12/8/18 13:54,514
12/8/18 13:54,516
12/8/18 13:54,516
12/8/18 13:54,517
12/8/18 13:54,519
12/8/18 13:54,518
12/8/18 13:54,516
12/8/18 13:54,515
12/8/18 13:54,511
12/8/18 13:54,511
12/8/18 13:54,512
12/8/18 13:54,508
12/8/18 13:54,510
12/8/18 13:54,508
12/8/18 13:54,500
12/8/18 13:54,491
12/8/18 13:54,500
12/8/18 13:54,507
12/8/18 13:54,511
12/8/18 13:54,514
12/8/18 13:54,516
12/8/18 13:54,517
12/8/18 13:54,517
12/8/18 13:54,516
12/8/18 13:54,514
12/8/18 13:54,513
12/8/18 13:54,512
12/8/18 13:54,511
12/8/18 13:54,509
12/8/18 13:54,509
12/8/18 13:54,508
12/8/18 13:54,509
12/8/18 13:54,509
12/8/18 13:54,508
12/8/18 13:54,509
12/8/18 13:54,508
12/8/18 13:54,506
12/8/18 13:54,507
12/8/18 13:54,506
12/8/18 13:54,507
12/8/18 13:54,506
12/8/18 13:54,506
12/8/18 13:54,507
12/8/18 13:54,506
12/8/18 13:54,507
12/8/18 13:54,505
12/8/18 13:54,505
12/8/18 13:54,508
12/8/18 13:54,506
12/8/18 13:54,509
12/8/18 13:54,506
12/8/18 13:54,507
12/8/18 13:54,508
12/8/18 13:54,506
12/8/18 13:54,506
12/8/18 13:54,507
12/8/18 13:54,508
12/8/18 13:54,506
12/8/18 13:54,507
12/8/18 13:54,507
12/8/18 13:54,507
12/8/18 13:54,505
12/8/18 13:54,500
12/8/18 13:54,513
12/8/18 13:54,496
12/8/18 13:54,496
12/8/18 13:54,501
12/8/18 13:54,481
12/8/18 13:54,497
12/8/18 13:54,519
12/8/18 13:54,521
12/8/18 13:54,523
12/8/18 13:54,520
12/8/18 13:54,517
12/8/18 13:54,516
12/8/18 13:54,511
12/8/18 13:54,511
12/8/18 13:54,511
12/8/18 13:54,508
12/8/18 13:54,510
12/8/18 13:54,506
12/8/18 13:54,509
12/8/18 13:54,574
12/8/18 13:54,609
12/8/18 13:54,590
12/8/18 13:54,483
12/8/18 13:54,475
12/8/18 13:54,471
12/8/18 13:54,492
12/8/18 13:54,501
12/8/18 13:54,486
12/8/18 13:54,486
12/8/18 13:54,479
12/8/18 13:54,475
12/8/18 13:54,489
12/8/18 13:54,486
12/8/18 13:54,485
12/8/18 13:54,489
12/8/18 13:54,496
12/8/18 13:54,503
12/8/18 13:54,506
12/8/18 13:54,509
12/8/18 13:54,510
12/8/18 13:54,511
12/8/18 13:54,511
12/8/18 13:54,512
12/8/18 13:54,511
12/8/18 13:54,511
12/8/18 13:54,511
12/8/18 13:54,510
12/8/18 13:54,508
12/8/18 13:54,510
12/8/18 13:54,507
12/8/18 13:54,507
12/8/18 13:54,513
12/8/18 13:54,505
12/8/18 13:54,508
12/8/18 13:54,509
12/8/18 13:54,508
12/8/18 13:54,509
12/8/18 13:54,505
12/8/18 13:54,510
12/8/18 13:54,507
12/8/18 13:54,508
12/8/18 13:54,509
12/8/18 13:54,506
12/8/18 13:54,510
12/8/18 13:54,509
12/8/18 13:54,508
12/8/18 13:54,510
12/8/18 13:54,506
12/8/18 13:54,509
12/8/18 13:54,509
12/8/18 13:54,509
12/8/18 13:54,508
12/8/18 13:54,508
12/8/18 13:54,509
12/8/18 13:54,507
12/8/18 13:54,509
12/8/18 13:54,510
12/8/18 13:54,508
12/8/18 13:54,510
12/8/18 13:54,509
12/8/18 13:54,511
12/8/18 13:54,509
12/8/18 13:54,510
12/8/18 13:54,510
12/8/18 13:54,507
12/8/18 13:54,510
12/8/18 13:54,511
12/8/18 13:54,508
12/8/18 13:54,513
12/8/18 13:54,509
12/8/18 13:54,510
12/8/18 13:54,508
12/8/18 13:54,510
12/8/18 13:54,510
12/8/18 13:54,507
12/8/18 13:54,510
12/8/18 13:54,510
12/8/18 13:54,507
12/8/18 13:54,510
12/8/18 13:54,507
12/8/18 13:54,510
12/8/18 13:54,509
12/8/18 13:54,507
12/8/18 13:54,508
12/8/18 13:54,504
12/8/18 13:54,508
12/8/18 13:54,509
12/8/18 13:54,508
12/8/18 13:54,510
12/8/18 13:54,508
12/8/18 13:54,508
12/8/18 13:54,508
12/8/18 13:54,508
12/8/18 13:54,509
12/8/18 13:54,507
12/8/18 13:54,508
12/8/18 13:54,508
12/8/18 13:54,508
12/8/18 13:54,508
12/8/18 13:54,508
12/8/18 13:54,508
12/8/18 13:54,507
12/8/18 13:54,506
12/8/18 13:54,507
12/8/18 13:54,507
12/8/18 13:54,509
12/8/18 13:54,506
12/8/18 13:54,507
12/8/18 13:54,509
12/8/18 13:54,505
12/8/18 13:54,509
12/8/18 13:54,506
12/8/18 13:54,507
12/8/18 13:54,508
12/8/18 13:54,506
12/8/18 13:54,508
12/8/18 13:54,508
12/8/18 13:54,506
12/8/18 13:54,507
12/8/18 13:54,507
12/8/18 13:54,508
12/8/18 13:54,508
12/8/18 13:54,507
12/8/18 13:54,507
12/8/18 13:54,506
12/8/18 13:54,519
12/8/18 13:54,501
12/8/18 13:54,493
12/8/18 13:54,475
12/8/18 13:54,500
12/8/18 13:54,516
12/8/18 13:54,519
12/8/18 13:54,522
12/8/18 13:54,571
12/8/18 13:54,612
12/8/18 13:54,601
12/8/18 13:54,506
12/8/18 13:54,482
12/8/18 13:54,485
12/8/18 13:54,513
12/8/18 13:54,494
12/8/18 13:54,469
12/8/18 13:54,487
12/8/18 13:54,505
12/8/18 13:54,500
12/8/18 13:54,488
12/8/18 13:54,482
12/8/18 14:03,515
12/8/18 14:03,514
12/8/18 14:03,510
12/8/18 14:03,506
12/8/18 14:03,507
12/8/18 14:03,507
12/8/18 14:03,499
12/8/18 14:03,481
12/8/18 14:03,487
12/8/18 14:03,519
12/8/18 14:03,515
12/8/18 14:03,526
12/8/18 14:03,520
12/8/18 14:03,515
12/8/18 14:03,522
12/8/18 14:03,510
12/8/18 14:03,517
12/8/18 14:03,513
12/8/18 14:03,509
12/8/18 14:03,513
12/8/18 14:03,505
12/8/18 14:03,513
12/8/18 14:03,507
12/8/18 14:03,505
12/8/18 14:03,513
12/8/18 14:03,504
12/8/18 14:03,513
12/8/18 14:03,507
12/8/18 14:03,506
12/8/18 14:03,512
12/8/18 14:03,503
12/8/18 14:03,513
12/8/18 14:03,507
12/8/18 14:03,508
12/8/18 14:03,512
12/8/18 14:03,503
12/8/18 14:03,515
12/8/18 14:03,506
12/8/18 14:03,508
12/8/18 14:03,512
12/8/18 14:03,505
12/8/18 14:03,515
12/8/18 14:03,505
12/8/18 14:03,509
12/8/18 14:03,506
12/8/18 14:03,509
12/8/18 14:03,503
12/8/18 14:03,492
12/8/18 14:03,502
12/8/18 14:03,509
12/8/18 14:03,507
12/8/18 14:03,517
12/8/18 14:03,503
12/8/18 14:03,493
12/8/18 14:03,512
12/8/18 14:03,513
12/8/18 14:03,527
12/8/18 14:03,516
12/8/18 14:03,516
12/8/18 14:03,517
12/8/18 14:03,506
12/8/18 14:03,517
12/8/18 14:03,505
12/8/18 14:03,510
12/8/18 14:03,508
12/8/18 14:03,504
12/8/18 14:03,513
12/8/18 14:03,503
12/8/18 14:03,509
12/8/18 14:03,508
12/8/18 14:03,502
12/8/18 14:03,513
12/8/18 14:03,502
12/8/18 14:03,509
12/8/18 14:03,507
12/8/18 14:03,502
12/8/18 14:03,512
12/8/18 14:03,502
12/8/18 14:03,496
12/8/18 14:03,498
12/8/18 14:03,499
12/8/18 14:03,512
12/8/18 14:03,503
12/8/18 14:03,514
12/8/18 14:03,513
12/8/18 14:03,507
12/8/18 14:03,516
12/8/18 14:03,505
12/8/18 14:03,513
12/8/18 14:03,509
12/8/18 14:03,507
12/8/18 14:03,513
12/8/18 14:03,506
12/8/18 14:03,510
12/8/18 14:03,507
12/8/18 14:03,506
12/8/18 14:03,512
12/8/18 14:03,502
12/8/18 14:03,512
12/8/18 14:03,509
12/8/18 14:03,506
12/8/18 14:03,565
12/8/18 14:03,623
12/8/18 14:03,589
12/8/18 14:03,482
12/8/18 14:03,473
12/8/18 14:03,474
12/8/18 14:03,488
12/8/18 14:03,498
12/8/18 14:03,484
12/8/18 14:03,484
12/8/18 14:03,486
12/8/18 14:03,474
12/8/18 14:03,492
12/8/18 14:03,496
12/8/18 14:03,500
12/8/18 14:03,513
12/8/18 14:03,495
12/8/18 14:03,496
12/8/18 14:03,488
12/8/18 14:03,495
12/8/18 14:03,501
12/8/18 14:03,499
12/8/18 14:03,513
12/8/18 14:03,507
12/8/18 14:03,511
12/8/18 14:03,515
12/8/18 14:03,504
12/8/18 14:03,516
12/8/18 14:03,508
12/8/18 14:03,510
12/8/18 14:03,514
12/8/18 14:03,506
12/8/18 14:03,515
12/8/18 14:03,506
12/8/18 14:03,508
12/8/18 14:03,513
12/8/18 14:03,504
12/8/18 14:03,515
12/8/18 14:03,506
12/8/18 14:03,508
12/8/18 14:03,511
12/8/18 14:03,504
12/8/18 14:03,515
12/8/18 14:03,505
12/8/18 14:03,508
12/8/18 14:03,509
12/8/18 14:03,503
12/8/18 14:03,515
12/8/18 14:03,504
12/8/18 14:03,511
12/8/18 14:03,510
12/8/18 14:03,503
12/8/18 14:03,511
12/8/18 14:03,497
12/8/18 14:03,519
12/8/18 14:03,484
12/8/18 14:03,481
12/8/18 14:03,510
12/8/18 14:03,513
12/8/18 14:03,522
12/8/18 14:03,523
12/8/18 14:03,516
12/8/18 14:03,521
12/8/18 14:03,510
12/8/18 14:03,516
12/8/18 14:03,514
12/8/18 14:03,510
12/8/18 14:03,517
12/8/18 14:03,506
12/8/18 14:03,513
12/8/18 14:03,510
12/8/18 14:03,505
12/8/18 14:03,514
12/8/18 14:03,505
12/8/18 14:03,513
12/8/18 14:03,509
12/8/18 14:03,506
12/8/18 14:03,514
12/8/18 14:03,503
12/8/18 14:03,511
12/8/18 14:03,507
12/8/18 14:03,505
12/8/18 14:03,513
12/8/18 14:03,503
12/8/18 14:03,513
12/8/18 14:03,500
12/8/18 14:03,514
12/8/18 14:03,503
12/8/18 14:03,495
12/8/18 14:03,506
12/8/18 14:03,505
12/8/18 14:03,508
12/8/18 14:03,516
12/8/18 14:03,505
12/8/18 14:03,516
12/8/18 14:03,509
12/8/18 14:03,509
12/8/18 14:03,513
12/8/18 14:03,504
12/8/18 14:03,513
12/8/18 14:03,507
12/8/18 14:03,507
12/8/18 14:03,514
12/8/18 14:03,503
12/8/18 14:03,514
12/8/18 14:03,507
12/8/18 14:03,505
12/8/18 14:03,512
12/8/18 14:03,502
12/8/18 14:03,511
12/8/18 14:03,503
12/8/18 14:03,507
12/8/18 14:03,511
12/8/18 14:03,502
12/8/18 14:03,511
12/8/18 14:03,505
12/8/18 14:03,506
12/8/18 14:03,512
12/8/18 14:03,502
12/8/18 14:03,492
12/8/18 14:03,492
12/8/18 14:03,509
12/8/18 14:03,519
12/8/18 14:03,510
12/8/18 14:03,519
12/8/18 14:03,510
12/8/18 14:03,510
12/8/18 14:03,515
12/8/18 14:03,505
12/8/18 14:03,515
12/8/18 14:03,504
12/8/18 14:03,508
12/8/18 14:03,512
12/8/18 14:03,503
12/8/18 14:03,513
12/8/18 14:03,503
12/8/18 14:03,515
12/8/18 14:03,579
12/8/18 14:03,607
12/8/18 14:03,618
12/8/18 14:03,471
12/8/18 14:03,449
12/8/18 14:03,461
12/8/18 14:03,479
12/8/18 14:03,505
12/8/18 14:03,499
12/8/18 14:03,475
12/8/18 14:03,486
12/8/18 14:03,487
12/8/18 14:03,496
12/8/18 14:03,493
12/8/18 14:03,509
12/8/18 14:03,519
12/8/18 14:03,477
12/8/18 14:03,493
12/8/18 14:03,488
12/8/18 14:03,498
12/8/18 14:03,497
12/8/18 14:03,494
12/8/18 14:03,505
12/8/18 14:03,504
12/8/18 14:03,507
12/8/18 14:03,476
12/8/18 14:03,486
12/8/18 14:03,517
12/8/18 14:03,516
12/8/18 14:03,525
12/8/18 14:03,521
12/8/18 14:03,515
12/8/18 14:03,521
12/8/18 14:03,511
12/8/18 14:03,519
12/8/18 14:03,514
12/8/18 14:03,508
12/8/18 14:03,525
12/8/18 14:03,496
12/8/18 14:03,502
12/8/18 14:03,499
12/8/18 14:03,505
12/8/18 14:03,514
12/8/18 14:03,508
12/8/18 14:03,518
12/8/18 14:03,510
12/8/18 14:03,511
12/8/18 14:03,516
12/8/18 14:03,507
12/8/18 14:03,513
12/8/18 14:03,507
12/8/18 14:03,509
12/8/18 14:03,514
12/8/18 14:03,503
12/8/18 14:03,516
12/8/18 14:03,507
12/8/18 14:03,507
12/8/18 14:03,511
12/8/18 14:03,504
12/8/18 14:03,514
12/8/18 14:03,505
12/8/18 14:03,509
12/8/18 14:03,512
12/8/18 14:03,505
12/8/18 14:03,512
12/8/18 14:03,507
12/8/18 14:03,508
12/8/18 14:03,513
12/8/18 14:03,505
12/8/18 14:03,513
12/8/18 14:03,505
12/8/18 14:03,509
12/8/18 14:03,514
12/8/18 14:03,503
12/8/18 14:03,500
12/8/18 14:03,490
12/8/18 14:03,512
12/8/18 14:03,520
12/8/18 14:03,513
12/8/18 14:03,522
12/8/18 14:03,512
12/8/18 14:03,513
12/8/18 14:03,514
12/8/18 14:03,508
12/8/18 14:03,515
12/8/18 14:03,506
12/8/18 14:03,511
12/8/18 14:03,512
12/8/18 14:03,504
12/8/18 14:03,514
12/8/18 14:03,503
12/8/18 14:03,508
12/8/18 14:03,510
12/8/18 14:03,505
12/8/18 14:03,513
12/8/18 14:03,504
12/8/18 14:03,513
12/8/18 14:03,508
12/8/18 14:03,504
12/8/18 14:03,513
12/8/18 14:03,501
12/8/18 14:03,509
12/8/18 14:03,508
12/8/18 14:03,502
12/8/18 14:03,511
12/8/18 14:03,502
12/8/18 14:03,511
12/8/18 14:03,509
12/8/18 14:03,503
12/8/18 14:03,513
12/8/18 14:03,501
12/8/18 14:03,510
12/8/18 14:03,512
12/8/18 14:03,503
12/8/18 14:03,492
12/8/18 14:03,470
12/8/18 14:03,502
12/8/18 14:03,514
12/8/18 14:03,516
12/8/18 14:03,522
12/8/18 14:03,515
12/8/18 14:03,521
12/8/18 14:03,514
12/8/18 14:03,510
12/8/18 14:03,517
12/8/18 14:03,505
12/8/18 14:03,514
12/8/18 14:03,508
12/8/18 14:03,508
12/8/18 14:03,512
12/8/18 14:03,501
12/8/18 14:03,511
12/8/18 14:03,503
12/8/18 14:03,504
12/8/18 14:03,513
12/8/18 14:03,503
12/8/18 14:03,514
12/8/18 14:03,506
12/8/18 14:03,505
12/8/18 14:03,510
12/8/18 14:03,500
12/8/18 14:03,515
12/8/18 14:03,612
12/8/18 14:03,631
12/8/18 14:03,571
12/8/18 14:03,454
12/8/18 14:03,462
12/8/18 14:03,475
12/8/18 14:03,479
12/8/18 14:03,489
12/8/18 14:03,489
12/8/18 14:03,503
12/8/18 14:03,490
12/8/18 14:03,483
12/8/18 14:03,488
12/8/18 14:03,484
12/8/18 14:03,488
12/8/18 14:03,480
12/8/18 14:03,490
12/8/18 14:03,499
12/8/18 14:03,496
12/8/18 14:03,510
12/8/18 14:03,504
12/8/18 14:03,511
12/8/18 14:03,514
12/8/18 14:03,506
12/8/18 14:03,515
12/8/18 14:03,501
12/8/18 14:03,510
12/8/18 14:03,476
12/8/18 14:03,492
12/8/18 14:03,518
12/8/18 14:03,514
12/8/18 14:03,523
12/8/18 14:03,523
12/8/18 14:03,515
12/8/18 14:03,520
12/8/18 14:03,510
12/8/18 14:03,515
12/8/18 14:03,515
12/8/18 14:03,509
12/8/18 14:03,515
12/8/18 14:03,504
12/8/18 14:03,510
12/8/18 14:03,508
12/8/18 14:03,504
12/8/18 14:03,514
12/8/18 14:03,504
12/8/18 14:03,510
12/8/18 14:03,508
12/8/18 14:03,504
12/8/18 14:03,513
12/8/18 14:03,503
12/8/18 14:03,510
12/8/18 14:03,509
12/8/18 14:03,505
12/8/18 14:03,515
12/8/18 14:03,504
12/8/18 14:03,510
12/8/18 14:03,510
12/8/18 14:03,505
12/8/18 14:03,512
12/8/18 14:03,503
12/8/18 14:03,511
12/8/18 14:03,509
12/8/18 14:03,506
12/8/18 14:03,515
12/8/18 14:03,504
12/8/18 14:03,512
12/8/18 14:03,508
12/8/18 14:03,508
12/8/18 14:03,515
12/8/18 14:03,503
12/8/18 14:03,514
12/8/18 14:03,508
12/8/18 14:03,507
12/8/18 14:03,514
12/8/18 14:03,509
12/8/18 14:03,510
12/8/18 14:03,471
12/8/18 14:03,492
12/8/18 14:03,514
12/8/18 14:03,514
12/8/18 14:03,524
12/8/18 14:03,518
12/8/18 14:03,519
12/8/18 14:03,520
12/8/18 14:03,508
12/8/18 14:03,521
12/8/18 14:03,510
12/8/18 14:03,511
12/8/18 14:03,512
12/8/18 14:03,504
12/8/18 14:03,513
12/8/18 14:03,504
12/8/18 14:03,507
12/8/18 14:03,510
12/8/18 14:03,502
12/8/18 14:03,511
12/8/18 14:03,503
12/8/18 14:03,508
12/8/18 14:03,510
12/8/18 14:03,501
12/8/18 14:03,513
12/8/18 14:03,502
12/8/18 14:03,507
12/8/18 14:03,511
12/8/18 14:03,503
12/8/18 14:03,512
12/8/18 14:03,502
12/8/18 14:03,507
12/8/18 14:03,509
12/8/18 14:03,503
12/8/18 14:03,512
12/8/18 14:03,502
12/8/18 14:03,507
12/8/18 14:03,510
12/8/18 14:03,503
12/8/18 14:03,511
12/8/18 14:03,503
12/8/18 14:03,511
12/8/18 14:03,506
12/8/18 14:03,503
12/8/18 14:03,513
12/8/18 14:03,504
12/8/18 14:03,510
12/8/18 14:03,508
12/8/18 14:03,505
12/8/18 14:03,513
12/8/18 14:03,502
12/8/18 14:03,509
12/8/18 14:03,508
12/8/18 14:03,506
12/8/18 14:03,512
12/8/18 14:03,505
12/8/18 14:03,568
12/8/18 14:03,630
12/8/18 14:03,572
12/8/18 14:03,491
12/8/18 14:03,468
12/8/18 14:03,473
12/8/18 14:03,488
12/8/18 14:03,498
12/8/18 14:03,492
12/8/18 14:03,475
12/8/18 14:03,490
12/8/18 14:03,479
12/8/18 14:03,477
12/8/18 14:03,499
12/8/18 14:03,488
12/8/18 14:03,485
12/8/18 14:03,485
12/8/18 14:03,494
12/8/18 14:03,507
12/8/18 14:03,504
12/8/18 14:03,517
12/8/18 14:03,511
12/8/18 14:03,515
12/8/18 14:03,520
12/8/18 14:03,512
12/8/18 14:03,522
12/8/18 14:03,512
12/8/18 14:03,513
12/8/18 14:03,515
12/8/18 14:03,495
12/8/18 14:03,494
12/8/18 14:03,505
12/8/18 14:03,515
12/8/18 14:03,520
12/8/18 14:03,511
12/8/18 14:03,520
12/8/18 14:03,510
12/8/18 14:03,508
12/8/18 14:03,513
12/8/18 14:03,506
12/8/18 14:03,513
12/8/18 14:03,505
12/8/18 14:03,509
12/8/18 14:03,510
12/8/18 14:03,500
12/8/18 14:03,510
12/8/18 14:03,512
12/8/18 14:03,504
12/8/18 14:03,497
12/8/18 14:03,495
12/8/18 14:03,508
12/8/18 14:03,503
12/8/18 14:03,511
12/8/18 14:03,514
12/8/18 14:03,508
12/8/18 14:03,517
12/8/18 14:03,508
12/8/18 14:03,513
12/8/18 14:03,511
12/8/18 14:03,506
12/8/18 14:03,516
12/8/18 14:03,506
12/8/18 14:03,513
12/8/18 14:03,511
12/8/18 14:03,507
12/8/18 14:03,514
12/8/18 14:03,503
12/8/18 14:03,513
12/8/18 14:03,510
12/8/18 14:03,506
12/8/18 14:03,514
12/8/18 14:03,503
12/8/18 14:03,512
12/8/18 14:03,509
12/8/18 14:03,506
12/8/18 14:03,516
12/8/18 14:03,503
12/8/18 14:03,513
12/8/18 14:03,508
12/8/18 14:03,505
12/8/18 14:03,514
12/8/18 14:03,503
12/8/18 14:03,513
12/8/18 14:03,507
12/8/18 14:03,507
12/8/18 14:03,511
12/8/18 14:03,503
12/8/18 14:12,501
12/8/18 14:12,502
12/8/18 14:12,507
12/8/18 14:12,508
12/8/18 14:12,508
12/8/18 14:12,512
12/8/18 14:12,510
12/8/18 14:12,510
12/8/18 14:12,511
12/8/18 14:12,509
12/8/18 14:12,509
12/8/18 14:12,509
12/8/18 14:12,511
12/8/18 14:12,506
12/8/18 14:12,482
12/8/18 14:12,506
12/8/18 14:12,509
12/8/18 14:12,531
12/8/18 14:12,508
12/8/18 14:12,505
12/8/18 14:12,509
12/8/18 14:12,508
12/8/18 14:12,513
12/8/18 14:12,513
12/8/18 14:12,511
12/8/18 14:12,512
12/8/18 14:12,511
12/8/18 14:12,510
12/8/18 14:12,511
12/8/18 14:12,510
12/8/18 14:12,511
12/8/18 14:12,507
12/8/18 14:12,509
12/8/18 14:12,507
12/8/18 14:12,506
12/8/18 14:12,509
12/8/18 14:12,506
12/8/18 14:12,508
12/8/18 14:12,508
12/8/18 14:12,508
12/8/18 14:12,509
12/8/18 14:12,508
12/8/18 14:12,508
12/8/18 14:12,508
12/8/18 14:12,510
12/8/18 14:12,510
12/8/18 14:12,507
12/8/18 14:12,509
12/8/18 14:12,508
12/8/18 14:12,508
12/8/18 14:12,511
12/8/18 14:12,507
12/8/18 14:12,511
12/8/18 14:12,506
12/8/18 14:12,512
12/8/18 14:12,497
12/8/18 14:12,500
12/8/18 14:12,507
12/8/18 14:12,509
12/8/18 14:12,512
12/8/18 14:12,516
12/8/18 14:12,511
12/8/18 14:12,515
12/8/18 14:12,512
12/8/18 14:12,511
12/8/18 14:12,513
12/8/18 14:12,510
12/8/18 14:12,512
12/8/18 14:12,508
12/8/18 14:12,510
12/8/18 14:12,510
12/8/18 14:12,509
12/8/18 14:12,508
12/8/18 14:12,508
12/8/18 14:12,507
12/8/18 14:12,511
12/8/18 14:12,508
12/8/18 14:12,509
12/8/18 14:12,507
12/8/18 14:12,508
12/8/18 14:12,508
12/8/18 14:12,507
12/8/18 14:12,507
12/8/18 14:12,506
12/8/18 14:12,507
12/8/18 14:12,507
12/8/18 14:12,507
12/8/18 14:12,507
12/8/18 14:12,506
12/8/18 14:12,507
12/8/18 14:12,508
12/8/18 14:12,507
12/8/18 14:12,507
12/8/18 14:12,506
12/8/18 14:12,507
12/8/18 14:12,508
12/8/18 14:12,508
12/8/18 14:12,508
12/8/18 14:12,506
12/8/18 14:12,507
12/8/18 14:12,507
12/8/18 14:12,507
12/8/18 14:12,508
12/8/18 14:12,506
12/8/18 14:12,508
12/8/18 14:12,507
12/8/18 14:12,507
12/8/18 14:12,509
12/8/18 14:12,507
12/8/18 14:12,508
12/8/18 14:12,507
12/8/18 14:12,507
12/8/18 14:12,508
12/8/18 14:12,506
12/8/18 14:12,510
12/8/18 14:12,509
12/8/18 14:12,506
12/8/18 14:12,506
12/8/18 14:12,505
12/8/18 14:12,499
12/8/18 14:12,479
12/8/18 14:12,517
12/8/18 14:12,507
12/8/18 14:12,507
12/8/18 14:12,521
12/8/18 14:12,610
12/8/18 14:12,655
12/8/18 14:12,533
12/8/18 14:12,464
12/8/18 14:12,463
12/8/18 14:12,488
12/8/18 14:12,505
12/8/18 14:12,494
12/8/18 14:12,493
12/8/18 14:12,489
12/8/18 14:12,478
12/8/18 14:12,482
12/8/18 14:12,478
12/8/18 14:12,483
12/8/18 14:12,496
12/8/18 14:12,494
12/8/18 14:12,495
12/8/18 14:12,497
12/8/18 14:12,501
12/8/18 14:12,504
12/8/18 14:12,506
12/8/18 14:12,509
12/8/18 14:12,512
12/8/18 14:12,513
12/8/18 14:12,513
12/8/18 14:12,511
12/8/18 14:12,509
12/8/18 14:12,510
12/8/18 14:12,510
12/8/18 14:12,512
12/8/18 14:12,508
12/8/18 14:12,509
12/8/18 14:12,508
12/8/18 14:12,508
12/8/18 14:12,507
12/8/18 14:12,508
12/8/18 14:12,507
12/8/18 14:12,507
12/8/18 14:12,506
12/8/18 14:12,510
12/8/18 14:12,507
12/8/18 14:12,508
12/8/18 14:12,509
12/8/18 14:12,507
12/8/18 14:12,509
12/8/18 14:12,506
12/8/18 14:12,509
12/8/18 14:12,509
12/8/18 14:12,507
12/8/18 14:12,510
12/8/18 14:12,507
12/8/18 14:12,523
12/8/18 14:12,504
12/8/18 14:12,496
12/8/18 14:12,500
12/8/18 14:12,505
12/8/18 14:12,509
12/8/18 14:12,514
12/8/18 14:12,514
12/8/18 14:12,515
12/8/18 14:12,513
12/8/18 14:12,513
12/8/18 14:12,512
12/8/18 14:12,510
12/8/18 14:12,511
12/8/18 14:12,509
12/8/18 14:12,510
12/8/18 14:12,510
12/8/18 14:12,510
12/8/18 14:12,508
12/8/18 14:12,509
12/8/18 14:12,511
12/8/18 14:12,510
12/8/18 14:12,510
12/8/18 14:12,510
12/8/18 14:12,509
12/8/18 14:12,510
12/8/18 14:12,508
12/8/18 14:12,508
12/8/18 14:12,508
12/8/18 14:12,486
12/8/18 14:12,495
12/8/18 14:12,511
12/8/18 14:12,517
12/8/18 14:12,520
12/8/18 14:12,515
12/8/18 14:12,515
12/8/18 14:12,515
12/8/18 14:12,512
12/8/18 14:12,510
12/8/18 14:12,508
12/8/18 14:12,510
12/8/18 14:12,507
12/8/18 14:12,508
12/8/18 14:12,508
12/8/18 14:12,508
12/8/18 14:12,507
12/8/18 14:12,506
12/8/18 14:12,507
12/8/18 14:12,506
12/8/18 14:12,507
12/8/18 14:12,509
12/8/18 14:12,507
12/8/18 14:12,508
12/8/18 14:12,506
12/8/18 14:12,506
12/8/18 14:12,509
12/8/18 14:12,507
12/8/18 14:12,500
12/8/18 14:12,518
12/8/18 14:12,496
12/8/18 14:12,498
12/8/18 14:12,503
12/8/18 14:12,507
12/8/18 14:12,509
12/8/18 14:12,510
12/8/18 14:12,505
12/8/18 14:12,484
12/8/18 14:12,507
12/8/18 14:12,518
12/8/18 14:12,520
12/8/18 14:12,520
12/8/18 14:12,517
12/8/18 14:12,513
12/8/18 14:12,513
12/8/18 14:12,510
12/8/18 14:12,509
12/8/18 14:12,508
12/8/18 14:12,507
12/8/18 14:12,508
12/8/18 14:12,508
12/8/18 14:12,507
12/8/18 14:12,505
12/8/18 14:12,507
12/8/18 14:12,507
12/8/18 14:12,506
12/8/18 14:12,508
12/8/18 14:12,534
12/8/18 14:12,591
12/8/18 14:12,632
12/8/18 14:12,519
12/8/18 14:12,464
12/8/18 14:12,464
12/8/18 14:12,482
12/8/18 14:12,499
12/8/18 14:12,482
12/8/18 14:12,484
12/8/18 14:12,486
12/8/18 14:12,492
12/8/18 14:12,470
12/8/18 14:12,475
12/8/18 14:12,490
12/8/18 14:12,494
12/8/18 14:12,501
12/8/18 14:12,502
12/8/18 14:12,505
12/8/18 14:12,510
12/8/18 14:12,509
12/8/18 14:12,513
12/8/18 14:12,485
12/8/18 14:12,502
12/8/18 14:12,518
12/8/18 14:12,518
12/8/18 14:12,520
12/8/18 14:12,517
12/8/18 14:12,514
12/8/18 14:12,513
12/8/18 14:12,510
12/8/18 14:12,511
12/8/18 14:12,509
12/8/18 14:12,508
12/8/18 14:12,507
12/8/18 14:12,505
12/8/18 14:12,507
12/8/18 14:12,507
12/8/18 14:12,506
12/8/18 14:12,508
12/8/18 14:12,505
12/8/18 14:12,507
12/8/18 14:12,506
12/8/18 14:12,507
12/8/18 14:12,507
12/8/18 14:12,506
12/8/18 14:12,508
12/8/18 14:12,506
12/8/18 14:12,508
12/8/18 14:12,508
12/8/18 14:12,510
12/8/18 14:12,511
12/8/18 14:12,506
12/8/18 14:12,508
12/8/18 14:12,509
12/8/18 14:12,506
12/8/18 14:12,509
12/8/18 14:12,507
12/8/18 14:12,510
12/8/18 14:12,510
12/8/18 14:12,509
12/8/18 14:12,511
12/8/18 14:12,509
12/8/18 14:12,508
12/8/18 14:12,510
12/8/18 14:12,509
12/8/18 14:12,510
12/8/18 14:12,508
12/8/18 14:12,511
12/8/18 14:12,509
12/8/18 14:12,510
12/8/18 14:12,510
12/8/18 14:12,509
12/8/18 14:12,511
12/8/18 14:12,510
12/8/18 14:12,509
12/8/18 14:12,510
12/8/18 14:12,507
12/8/18 14:12,511
12/8/18 14:12,511
12/8/18 14:12,509
12/8/18 14:12,509
12/8/18 14:12,509
12/8/18 14:12,507
12/8/18 14:12,522
12/8/18 14:12,499
12/8/18 14:12,491
12/8/18 14:12,475
12/8/18 14:12,505
12/8/18 14:12,518
12/8/18 14:12,521
12/8/18 14:12,524
12/8/18 14:12,521
12/8/18 14:12,519
12/8/18 14:12,516
12/8/18 14:12,512
12/8/18 14:12,513
12/8/18 14:12,510
12/8/18 14:12,509
12/8/18 14:12,507
12/8/18 14:12,509
12/8/18 14:12,510
12/8/18 14:12,505
12/8/18 14:12,508
12/8/18 14:12,506
12/8/18 14:12,506
12/8/18 14:12,506
12/8/18 14:12,504
12/8/18 14:12,505
12/8/18 14:12,508
12/8/18 14:12,507
12/8/18 14:12,505
12/8/18 14:12,505
12/8/18 14:12,507
12/8/18 14:12,505
12/8/18 14:12,506
12/8/18 14:12,507
12/8/18 14:12,506
12/8/18 14:12,509
12/8/18 14:12,506
12/8/18 14:12,506
12/8/18 14:12,506
12/8/18 14:12,506
12/8/18 14:12,509
12/8/18 14:12,507
12/8/18 14:12,507
12/8/18 14:12,508
12/8/18 14:12,508
12/8/18 14:12,507
12/8/18 14:12,506
12/8/18 14:12,508
12/8/18 14:12,508
12/8/18 14:12,507
12/8/18 14:12,509
12/8/18 14:12,509
12/8/18 14:12,505
12/8/18 14:12,520
12/8/18 14:12,532
12/8/18 14:12,576
12/8/18 14:12,625
12/8/18 14:12,524
12/8/18 14:12,471
12/8/18 14:12,438
12/8/18 14:12,479
12/8/18 14:12,510
12/8/18 14:12,509
12/8/18 14:12,502
12/8/18 14:12,500
12/8/18 14:12,491
12/8/18 14:12,483
12/8/18 14:12,490
12/8/18 14:12,491
12/8/18 14:12,492
12/8/18 14:12,503
12/8/18 14:12,501
12/8/18 14:12,497
12/8/18 14:12,496
12/8/18 14:12,497
12/8/18 14:12,503
12/8/18 14:12,504
12/8/18 14:12,509
12/8/18 14:12,509
12/8/18 14:12,511
12/8/18 14:12,513
12/8/18 14:12,511
12/8/18 14:12,509
12/8/18 14:12,510
12/8/18 14:12,510
12/8/18 14:12,510
12/8/18 14:12,509
12/8/18 14:12,509
12/8/18 14:12,510
12/8/18 14:12,508
12/8/18 14:12,507
12/8/18 14:12,506
12/8/18 14:12,509
12/8/18 14:12,509
12/8/18 14:12,507
12/8/18 14:12,507
12/8/18 14:12,507
12/8/18 14:12,509
12/8/18 14:12,507
12/8/18 14:12,508
12/8/18 14:12,508
12/8/18 14:12,507
12/8/18 14:12,508
12/8/18 14:12,507
12/8/18 14:12,508
12/8/18 14:12,509
12/8/18 14:12,507
12/8/18 14:12,510
12/8/18 14:12,508
12/8/18 14:12,508
12/8/18 14:12,508
12/8/18 14:12,509
12/8/18 14:12,509
12/8/18 14:12,509
12/8/18 14:12,509
12/8/18 14:12,511
12/8/18 14:12,508
12/8/18 14:12,509
12/8/18 14:12,502
12/8/18 14:12,523
12/8/18 14:12,500
12/8/18 14:12,498
12/8/18 14:12,504
12/8/18 14:12,502
12/8/18 14:12,487
12/8/18 14:12,506
12/8/18 14:12,520
12/8/18 14:12,525
12/8/18 14:12,522
12/8/18 14:12,521
12/8/18 14:12,518
12/8/18 14:12,514
12/8/18 14:12,516
12/8/18 14:12,511
12/8/18 14:12,513
12/8/18 14:12,509
12/8/18 14:12,508
12/8/18 14:12,509
12/8/18 14:12,508
12/8/18 14:12,508
12/8/18 14:12,506
12/8/18 14:12,506
12/8/18 14:12,508
12/8/18 14:12,505
12/8/18 14:12,507
12/8/18 14:12,507
12/8/18 14:12,506
12/8/18 14:12,508
12/8/18 14:12,501
12/8/18 14:12,519
12/8/18 14:12,497
12/8/18 14:12,497
12/8/18 14:12,503
12/8/18 14:12,505
12/8/18 14:12,511
12/8/18 14:12,511
12/8/18 14:12,512
12/8/18 14:12,514
12/8/18 14:12,510
12/8/18 14:12,513
12/8/18 14:12,510
12/8/18 14:12,510
12/8/18 14:12,510
12/8/18 14:12,505
12/8/18 14:12,508
12/8/18 14:12,507
12/8/18 14:12,508
12/8/18 14:12,509
12/8/18 14:12,507
12/8/18 14:12,508
12/8/18 14:12,506
12/8/18 14:12,508
12/8/18 14:12,508
12/8/18 14:12,505
12/8/18 14:12,508
12/8/18 14:12,506
12/8/18 14:12,507
12/8/18 14:12,507
12/8/18 14:12,506
12/8/18 14:12,508
12/8/18 14:12,506
12/8/18 14:12,506
12/8/18 14:12,508
12/8/18 14:12,507
12/8/18 14:12,508
12/8/18 14:12,507
12/8/18 14:12,509
12/8/18 14:12,508
12/8/18 14:12,506
12/8/18 14:12,508
12/8/18 14:12,507
12/8/18 14:12,510
12/8/18 14:12,588
12/8/18 14:12,612
12/8/18 14:12,601
12/8/18 14:12,479
12/8/18 14:12,461
12/8/18 14:12,465
12/8/18 14:12,488
12/8/18 14:12,498
12/8/18 14:12,486
12/8/18 14:12,484
12/8/18 14:12,485
12/8/18 14:12,478
12/8/18 14:12,483
12/8/18 14:12,495
12/8/18 14:12,486
12/8/18 14:12,506
12/8/18 14:12,488
12/8/18 14:12,494
12/8/18 14:12,502
12/8/18 14:12,509
12/8/18 14:12,514
12/8/18 14:12,514
12/8/18 14:12,516
12/8/18 14:12,513
12/8/18 14:12,505
12/8/18 14:12,489
12/8/18 14:12,510
12/8/18 14:12,520
12/8/18 14:12,518
12/8/18 14:12,517
12/8/18 14:12,516
12/8/18 14:12,513
12/8/18 14:12,514
12/8/18 14:12,508
12/8/18 14:12,509
12/8/18 14:12,510
12/8/18 14:12,506
12/8/18 14:12,509
12/8/18 14:12,507
12/8/18 14:12,506
12/8/18 14:12,506
12/8/18 14:12,506
12/8/18 14:12,507
12/8/18 14:12,506
12/8/18 14:12,508
12/8/18 14:12,506
12/8/18 14:12,507
12/8/18 14:12,508
12/8/18 14:12,507
12/8/18 14:12,507
12/8/18 14:12,508
12/8/18 14:12,507
12/8/18 14:12,509
12/8/18 14:12,507
12/8/18 14:12,511
12/8/18 14:12,508
12/8/18 14:12,508
12/8/18 14:12,509
12/8/18 14:12,508
12/8/18 14:12,509
12/8/18 14:12,508
12/8/18 14:12,508
12/8/18 14:12,509
12/8/18 14:21,482
12/8/18 14:21,481
12/8/18 14:21,504
12/8/18 14:21,517
12/8/18 14:21,520
12/8/18 14:21,518
12/8/18 14:21,519
12/8/18 14:21,516
12/8/18 14:21,511
12/8/18 14:21,513
12/8/18 14:21,509
12/8/18 14:21,505
12/8/18 14:21,521
12/8/18 14:21,500
12/8/18 14:21,497
12/8/18 14:21,498
12/8/18 14:21,505
12/8/18 14:21,508
12/8/18 14:21,510
12/8/18 14:21,513
12/8/18 14:21,509
12/8/18 14:21,511
12/8/18 14:21,510
12/8/18 14:21,508
12/8/18 14:21,511
12/8/18 14:21,509
12/8/18 14:21,508
12/8/18 14:21,508
12/8/18 14:21,506
12/8/18 14:21,508
12/8/18 14:21,506
12/8/18 14:21,508
12/8/18 14:21,505
12/8/18 14:21,507
12/8/18 14:21,505
12/8/18 14:21,503
12/8/18 14:21,507
12/8/18 14:21,508
12/8/18 14:21,508
12/8/18 14:21,509
12/8/18 14:21,506
12/8/18 14:21,510
12/8/18 14:21,507
12/8/18 14:21,508
12/8/18 14:21,509
12/8/18 14:21,507
12/8/18 14:21,508
12/8/18 14:21,501
12/8/18 14:21,486
12/8/18 14:21,625
12/8/18 14:21,629
12/8/18 14:21,583
12/8/18 14:21,456
12/8/18 14:21,456
12/8/18 14:21,475
12/8/18 14:21,496
12/8/18 14:21,500
12/8/18 14:21,485
12/8/18 14:21,484
12/8/18 14:21,490
12/8/18 14:21,494
12/8/18 14:21,494
12/8/18 14:21,484
12/8/18 14:21,484
12/8/18 14:21,493
12/8/18 14:21,497
12/8/18 14:21,497
12/8/18 14:21,492
12/8/18 14:21,498
12/8/18 14:21,505
12/8/18 14:21,507
12/8/18 14:21,511
12/8/18 14:21,511
12/8/18 14:21,513
12/8/18 14:21,513
12/8/18 14:21,511
12/8/18 14:21,513
12/8/18 14:21,513
12/8/18 14:21,511
12/8/18 14:21,512
12/8/18 14:21,510
12/8/18 14:21,511
12/8/18 14:21,510
12/8/18 14:21,509
12/8/18 14:21,507
12/8/18 14:21,522
12/8/18 14:21,504
12/8/18 14:21,498
12/8/18 14:21,503
12/8/18 14:21,507
12/8/18 14:21,510
12/8/18 14:21,500
12/8/18 14:21,487
12/8/18 14:21,511
12/8/18 14:21,522
12/8/18 14:21,521
12/8/18 14:21,521
12/8/18 14:21,517
12/8/18 14:21,515
12/8/18 14:21,513
12/8/18 14:21,511
12/8/18 14:21,510
12/8/18 14:21,508
12/8/18 14:21,509
12/8/18 14:21,507
12/8/18 14:21,504
12/8/18 14:21,508
12/8/18 14:21,508
12/8/18 14:21,508
12/8/18 14:21,509
12/8/18 14:21,507
12/8/18 14:21,510
12/8/18 14:21,507
12/8/18 14:21,509
12/8/18 14:21,509
12/8/18 14:21,508
12/8/18 14:21,510
12/8/18 14:21,508
12/8/18 14:21,509
12/8/18 14:21,509
12/8/18 14:21,509
12/8/18 14:21,510
12/8/18 14:21,508
12/8/18 14:21,510
12/8/18 14:21,508
12/8/18 14:21,510
12/8/18 14:21,508
12/8/18 14:21,507
12/8/18 14:21,508
12/8/18 14:21,510
12/8/18 14:21,506
12/8/18 14:21,509
12/8/18 14:21,506
12/8/18 14:21,510
12/8/18 14:21,510
12/8/18 14:21,507
12/8/18 14:21,507
12/8/18 14:21,516
12/8/18 14:21,473
12/8/18 14:21,485
12/8/18 14:21,508
12/8/18 14:21,518
12/8/18 14:21,522
12/8/18 14:21,522
12/8/18 14:21,520
12/8/18 14:21,517
12/8/18 14:21,518
12/8/18 14:21,514
12/8/18 14:21,513
12/8/18 14:21,512
12/8/18 14:21,508
12/8/18 14:21,510
12/8/18 14:21,506
12/8/18 14:21,509
12/8/18 14:21,507
12/8/18 14:21,508
12/8/18 14:21,509
12/8/18 14:21,504
12/8/18 14:21,508
12/8/18 14:21,505
12/8/18 14:21,504
12/8/18 14:21,507
12/8/18 14:21,507
12/8/18 14:21,508
12/8/18 14:21,505
12/8/18 14:21,507
12/8/18 14:21,506
12/8/18 14:21,504
12/8/18 14:21,508
12/8/18 14:21,508
12/8/18 14:21,507
12/8/18 14:21,509
12/8/18 14:21,506
12/8/18 14:21,508
12/8/18 14:21,506
12/8/18 14:21,506
12/8/18 14:21,509
12/8/18 14:21,505
12/8/18 14:21,508
12/8/18 14:21,507
12/8/18 14:21,507
12/8/18 14:21,508
12/8/18 14:21,507
12/8/18 14:21,509
12/8/18 14:21,507
12/8/18 14:21,506
12/8/18 14:21,507
12/8/18 14:21,518
12/8/18 14:21,504
12/8/18 14:21,502
12/8/18 14:21,558
12/8/18 14:21,594
12/8/18 14:21,625
12/8/18 14:21,496
12/8/18 14:21,457
12/8/18 14:21,468
12/8/18 14:21,492
12/8/18 14:21,499
12/8/18 14:21,496
12/8/18 14:21,481
12/8/18 14:21,483
12/8/18 14:21,489
12/8/18 14:21,482
12/8/18 14:21,485
12/8/18 14:21,488
12/8/18 14:21,494
12/8/18 14:21,507
12/8/18 14:21,505
12/8/18 14:21,474
12/8/18 14:21,485
12/8/18 14:21,507
12/8/18 14:21,514
12/8/18 14:21,517
12/8/18 14:21,522
12/8/18 14:21,517
12/8/18 14:21,516
12/8/18 14:21,513
12/8/18 14:21,509
12/8/18 14:21,518
12/8/18 14:21,500
12/8/18 14:21,503
12/8/18 14:21,509
12/8/18 14:21,510
12/8/18 14:21,515
12/8/18 14:21,513
12/8/18 14:21,516
12/8/18 14:21,514
12/8/18 14:21,513
12/8/18 14:21,512
12/8/18 14:21,508
12/8/18 14:21,509
12/8/18 14:21,508
12/8/18 14:21,508
12/8/18 14:21,508
12/8/18 14:21,508
12/8/18 14:21,509
12/8/18 14:21,507
12/8/18 14:21,507
12/8/18 14:21,508
12/8/18 14:21,507
12/8/18 14:21,509
12/8/18 14:21,507
12/8/18 14:21,506
12/8/18 14:21,508
12/8/18 14:21,507
12/8/18 14:21,509
12/8/18 14:21,508
12/8/18 14:21,508
12/8/18 14:21,509
12/8/18 14:21,491
12/8/18 14:21,486
12/8/18 14:21,490
12/8/18 14:21,506
12/8/18 14:21,516
12/8/18 14:21,519
12/8/18 14:21,523
12/8/18 14:21,519
12/8/18 14:21,518
12/8/18 14:21,518
12/8/18 14:21,514
12/8/18 14:21,516
12/8/18 14:21,512
12/8/18 14:21,510
12/8/18 14:21,507
12/8/18 14:21,522
12/8/18 14:21,497
12/8/18 14:21,494
12/8/18 14:21,501
12/8/18 14:21,507
12/8/18 14:21,505
12/8/18 14:21,514
12/8/18 14:21,513
12/8/18 14:21,514
12/8/18 14:21,512
12/8/18 14:21,511
12/8/18 14:21,512
12/8/18 14:21,509
12/8/18 14:21,512
12/8/18 14:21,509
12/8/18 14:21,509
12/8/18 14:21,509
12/8/18 14:21,507
12/8/18 14:21,507
12/8/18 14:21,508
12/8/18 14:21,507
12/8/18 14:21,508
12/8/18 14:21,507
12/8/18 14:21,506
12/8/18 14:21,480
12/8/18 14:21,491
12/8/18 14:21,513
12/8/18 14:21,518
12/8/18 14:21,518
12/8/18 14:21,518
12/8/18 14:21,513
12/8/18 14:21,509
12/8/18 14:21,523
12/8/18 14:21,498
12/8/18 14:21,496
12/8/18 14:21,501
12/8/18 14:21,507
12/8/18 14:21,507
12/8/18 14:21,511
12/8/18 14:21,512
12/8/18 14:21,510
12/8/18 14:21,512
12/8/18 14:21,510
12/8/18 14:21,511
12/8/18 14:21,509
12/8/18 14:21,508
12/8/18 14:21,509
12/8/18 14:21,506
12/8/18 14:21,505
12/8/18 14:21,506
12/8/18 14:21,507
12/8/18 14:21,507
12/8/18 14:21,505
12/8/18 14:21,508
12/8/18 14:21,507
12/8/18 14:21,508
12/8/18 14:21,507
12/8/18 14:21,506
12/8/18 14:21,506
12/8/18 14:21,507
12/8/18 14:21,508
12/8/18 14:21,509
12/8/18 14:21,589
12/8/18 14:21,625
12/8/18 14:21,604
12/8/18 14:21,463
12/8/18 14:21,453
12/8/18 14:21,466
12/8/18 14:21,491
12/8/18 14:21,497
12/8/18 14:21,483
12/8/18 14:21,484
12/8/18 14:21,481
12/8/18 14:21,479
12/8/18 14:21,487
12/8/18 14:21,489
12/8/18 14:21,492
12/8/18 14:21,495
12/8/18 14:21,503
12/8/18 14:21,505
12/8/18 14:21,506
12/8/18 14:21,510
12/8/18 14:21,510
12/8/18 14:21,513
12/8/18 14:21,510
12/8/18 14:21,511
12/8/18 14:21,511
12/8/18 14:21,508
12/8/18 14:21,509
12/8/18 14:21,508
12/8/18 14:21,510
12/8/18 14:21,508
12/8/18 14:21,507
12/8/18 14:21,510
12/8/18 14:21,507
12/8/18 14:21,507
12/8/18 14:21,508
12/8/18 14:21,504
12/8/18 14:21,497
12/8/18 14:21,484
12/8/18 14:21,499
12/8/18 14:21,513
12/8/18 14:21,515
12/8/18 14:21,515
12/8/18 14:21,514
12/8/18 14:21,518
12/8/18 14:21,520
12/8/18 14:21,516
12/8/18 14:21,516
12/8/18 14:21,514
12/8/18 14:21,512
12/8/18 14:21,510
12/8/18 14:21,510
12/8/18 14:21,510
12/8/18 14:21,507
12/8/18 14:21,507
12/8/18 14:21,508
12/8/18 14:21,507
12/8/18 14:21,508
12/8/18 14:21,507
12/8/18 14:21,510
12/8/18 14:21,508
12/8/18 14:21,507
12/8/18 14:21,509
12/8/18 14:21,505
12/8/18 14:21,509
12/8/18 14:21,508
12/8/18 14:21,502
12/8/18 14:21,514
12/8/18 14:21,496
12/8/18 14:21,499
12/8/18 14:21,507
12/8/18 14:21,510
12/8/18 14:21,514
12/8/18 14:21,514
12/8/18 14:21,515
12/8/18 14:21,514
12/8/18 14:21,513
12/8/18 14:21,513
12/8/18 14:21,509
12/8/18 14:21,512
12/8/18 14:21,511
12/8/18 14:21,508
12/8/18 14:21,510
12/8/18 14:21,507
12/8/18 14:21,511
12/8/18 14:21,510
12/8/18 14:21,507
12/8/18 14:21,511
12/8/18 14:21,506
12/8/18 14:21,507
12/8/18 14:21,490
12/8/18 14:21,488
12/8/18 14:21,511
12/8/18 14:21,514
12/8/18 14:21,514
12/8/18 14:21,527
12/8/18 14:21,507
12/8/18 14:21,504
12/8/18 14:21,505
12/8/18 14:21,510
12/8/18 14:21,511
12/8/18 14:21,512
12/8/18 14:21,513
12/8/18 14:21,511
12/8/18 14:21,513
12/8/18 14:21,508
12/8/18 14:21,507
12/8/18 14:21,510
12/8/18 14:21,507
12/8/18 14:21,509
12/8/18 14:21,507
12/8/18 14:21,508
12/8/18 14:21,509
12/8/18 14:21,506
12/8/18 14:21,508
12/8/18 14:21,504
12/8/18 14:21,506
12/8/18 14:21,507
12/8/18 14:21,506
12/8/18 14:21,508
12/8/18 14:21,506
12/8/18 14:21,505
12/8/18 14:21,507
12/8/18 14:21,505
12/8/18 14:21,507
12/8/18 14:21,505
12/8/18 14:21,507
12/8/18 14:21,507
12/8/18 14:21,506
12/8/18 14:21,507
12/8/18 14:21,507
12/8/18 14:21,508
12/8/18 14:21,508
12/8/18 14:21,505
12/8/18 14:21,507
12/8/18 14:21,507
12/8/18 14:21,507
12/8/18 14:21,579
12/8/18 14:21,610
12/8/18 14:21,589
12/8/18 14:21,493
12/8/18 14:21,435
12/8/18 14:21,460
12/8/18 14:21,475
12/8/18 14:21,500
12/8/18 14:21,503
12/8/18 14:21,516
12/8/18 14:21,512
12/8/18 14:21,497
12/8/18 14:21,494
12/8/18 14:21,484
12/8/18 14:21,479
12/8/18 14:21,483
12/8/18 14:21,492
12/8/18 14:21,501
12/8/18 14:21,495
12/8/18 14:21,496
12/8/18 14:21,500
12/8/18 14:21,502
12/8/18 14:21,507
12/8/18 14:21,509
12/8/18 14:21,514
12/8/18 14:21,513
12/8/18 14:21,511
12/8/18 14:21,514
12/8/18 14:21,512
12/8/18 14:21,513
12/8/18 14:21,511
12/8/18 14:21,510
12/8/18 14:21,511
12/8/18 14:21,509
12/8/18 14:21,510
12/8/18 14:21,508
12/8/18 14:21,508
12/8/18 14:21,510
12/8/18 14:21,509
12/8/18 14:21,510
12/8/18 14:21,508
12/8/18 14:21,508
12/8/18 14:21,509
12/8/18 14:21,506
12/8/18 14:21,507
12/8/18 14:21,519
12/8/18 14:21,500
12/8/18 14:21,493
12/8/18 14:21,472
12/8/18 14:21,500
12/8/18 14:21,517
12/8/18 14:21,522
12/8/18 14:21,503
12/8/18 14:21,501
12/8/18 14:21,507
12/8/18 14:21,514
12/8/18 14:21,522
12/8/18 14:21,524
12/8/18 14:21,522
12/8/18 14:21,522
12/8/18 14:21,520
12/8/18 14:21,518
12/8/18 14:21,516
12/8/18 14:21,514
12/8/18 14:21,513
12/8/18 14:21,509
12/8/18 14:21,509
12/8/18 14:21,508
12/8/18 14:21,508
12/8/18 14:21,509
12/8/18 14:21,509
12/8/18 14:21,508
12/8/18 14:21,507
12/8/18 14:21,505
12/8/18 14:21,508
12/8/18 14:21,507
12/8/18 14:21,507
12/8/18 14:21,506
12/8/18 14:21,506
12/8/18 14:21,509
12/8/18 14:21,507
12/8/18 14:21,508
12/8/18 14:21,506
12/8/18 14:21,503
12/8/18 14:21,516
12/8/18 14:21,472
12/8/18 14:21,482
12/8/18 14:21,506
12/8/18 14:21,517
12/8/18 14:21,522
12/8/18 14:21,521
12/8/18 14:21,521
12/8/18 14:21,517
12/8/18 14:21,514
12/8/18 14:21,514
12/8/18 14:21,511
12/8/18 14:21,511
12/8/18 14:21,510
12/8/18 14:21,509
12/8/18 14:21,510
12/8/18 14:21,506
12/8/18 14:21,509
12/8/18 14:21,507
12/8/18 14:21,507
12/8/18 14:21,507
12/8/18 14:21,505
12/8/18 14:21,507
12/8/18 14:21,505
12/8/18 14:21,507
12/8/18 14:21,506
12/8/18 14:21,505
12/8/18 14:21,508
12/8/18 14:21,507
12/8/18 14:21,506
12/8/18 14:21,507
12/8/18 14:21,505
12/8/18 14:21,507
12/8/18 14:21,507
12/8/18 14:21,506
12/8/18 14:21,507
12/8/18 14:21,507
12/8/18 14:21,507
12/8/18 14:21,505
12/8/18 14:21,508
12/8/18 14:21,509
12/8/18 14:21,506
12/8/18 14:21,509
12/8/18 14:21,507
12/8/18 14:21,508
12/8/18 14:21,508
12/8/18 14:21,508
12/8/18 14:21,507
12/8/18 14:21,508
12/8/18 14:21,507
12/8/18 14:21,507
12/8/18 14:21,507
12/8/18 14:21,509
12/8/18 14:21,509
12/8/18 14:30,521
12/8/18 14:30,520
12/8/18 14:30,521
12/8/18 14:30,518
12/8/18 14:30,515
12/8/18 14:30,514
12/8/18 14:30,510
12/8/18 14:30,511
12/8/18 14:30,507
12/8/18 14:30,509
12/8/18 14:30,507
12/8/18 14:30,508
12/8/18 14:30,510
12/8/18 14:30,506
12/8/18 14:30,506
12/8/18 14:30,507
12/8/18 14:30,509
12/8/18 14:30,496
12/8/18 14:30,497
12/8/18 14:30,505
12/8/18 14:30,509
12/8/18 14:30,510
12/8/18 14:30,507
12/8/18 14:30,487
12/8/18 14:30,510
12/8/18 14:30,519
12/8/18 14:30,521
12/8/18 14:30,521
12/8/18 14:30,517
12/8/18 14:30,516
12/8/18 14:30,514
12/8/18 14:30,511
12/8/18 14:30,510
12/8/18 14:30,510
12/8/18 14:30,511
12/8/18 14:30,508
12/8/18 14:30,507
12/8/18 14:30,507
12/8/18 14:30,507
12/8/18 14:30,511
12/8/18 14:30,508
12/8/18 14:30,508
12/8/18 14:30,507
12/8/18 14:30,504
12/8/18 14:30,508
12/8/18 14:30,504
12/8/18 14:30,509
12/8/18 14:30,510
12/8/18 14:30,507
12/8/18 14:30,509
12/8/18 14:30,507
12/8/18 14:30,509
12/8/18 14:30,509
12/8/18 14:30,508
12/8/18 14:30,510
12/8/18 14:30,509
12/8/18 14:30,497
12/8/18 14:30,485
12/8/18 14:30,504
12/8/18 14:30,517
12/8/18 14:30,517
12/8/18 14:30,516
12/8/18 14:30,516
12/8/18 14:30,513
12/8/18 14:30,513
12/8/18 14:30,510
12/8/18 14:30,509
12/8/18 14:30,509
12/8/18 14:30,506
12/8/18 14:30,507
12/8/18 14:30,505
12/8/18 14:30,507
12/8/18 14:30,507
12/8/18 14:30,503
12/8/18 14:30,504
12/8/18 14:30,512
12/8/18 14:30,497
12/8/18 14:30,500
12/8/18 14:30,503
12/8/18 14:30,510
12/8/18 14:30,507
12/8/18 14:30,512
12/8/18 14:30,513
12/8/18 14:30,513
12/8/18 14:30,511
12/8/18 14:30,509
12/8/18 14:30,510
12/8/18 14:30,509
12/8/18 14:30,506
12/8/18 14:30,509
12/8/18 14:30,491
12/8/18 14:30,487
12/8/18 14:30,509
12/8/18 14:30,516
12/8/18 14:30,518
12/8/18 14:30,513
12/8/18 14:30,511
12/8/18 14:30,523
12/8/18 14:30,503
12/8/18 14:30,502
12/8/18 14:30,503
12/8/18 14:30,509
12/8/18 14:30,510
12/8/18 14:30,511
12/8/18 14:30,514
12/8/18 14:30,511
12/8/18 14:30,522
12/8/18 14:30,593
12/8/18 14:30,618
12/8/18 14:30,588
12/8/18 14:30,466
12/8/18 14:30,458
12/8/18 14:30,470
12/8/18 14:30,492
12/8/18 14:30,500
12/8/18 14:30,486
12/8/18 14:30,480
12/8/18 14:30,482
12/8/18 14:30,479
12/8/18 14:30,482
12/8/18 14:30,491
12/8/18 14:30,492
12/8/18 14:30,489
12/8/18 14:30,493
12/8/18 14:30,474
12/8/18 14:30,486
12/8/18 14:30,499
12/8/18 14:30,508
12/8/18 14:30,517
12/8/18 14:30,522
12/8/18 14:30,522
12/8/18 14:30,523
12/8/18 14:30,517
12/8/18 14:30,517
12/8/18 14:30,516
12/8/18 14:30,515
12/8/18 14:30,515
12/8/18 14:30,512
12/8/18 14:30,511
12/8/18 14:30,510
12/8/18 14:30,509
12/8/18 14:30,508
12/8/18 14:30,508
12/8/18 14:30,508
12/8/18 14:30,507
12/8/18 14:30,506
12/8/18 14:30,507
12/8/18 14:30,506
12/8/18 14:30,509
12/8/18 14:30,509
12/8/18 14:30,505
12/8/18 14:30,508
12/8/18 14:30,506
12/8/18 14:30,508
12/8/18 14:30,507
12/8/18 14:30,507
12/8/18 14:30,509
12/8/18 14:30,507
12/8/18 14:30,507
12/8/18 14:30,508
12/8/18 14:30,508
12/8/18 14:30,509
12/8/18 14:30,507
12/8/18 14:30,508
12/8/18 14:30,508
12/8/18 14:30,508
12/8/18 14:30,511
12/8/18 14:30,508
12/8/18 14:30,509
12/8/18 14:30,509
12/8/18 14:30,509
12/8/18 14:30,511
12/8/18 14:30,508
12/8/18 14:30,511
12/8/18 14:30,510
12/8/18 14:30,508
12/8/18 14:30,510
12/8/18 14:30,507
12/8/18 14:30,509
12/8/18 14:30,522
12/8/18 14:30,502
12/8/18 14:30,498
12/8/18 14:30,501
12/8/18 14:30,510
12/8/18 14:30,510
12/8/18 14:30,513
12/8/18 14:30,515
12/8/18 14:30,511
12/8/18 14:30,515
12/8/18 14:30,514
12/8/18 14:30,510
12/8/18 14:30,513
12/8/18 14:30,509
12/8/18 14:30,511
12/8/18 14:30,507
12/8/18 14:30,509
12/8/18 14:30,509
12/8/18 14:30,507
12/8/18 14:30,511
12/8/18 14:30,508
12/8/18 14:30,508
12/8/18 14:30,507
12/8/18 14:30,506
12/8/18 14:30,509
12/8/18 14:30,507
12/8/18 14:30,502
12/8/18 14:30,481
12/8/18 14:30,497
12/8/18 14:30,516
12/8/18 14:30,517
12/8/18 14:30,518
12/8/18 14:30,517
12/8/18 14:30,513
12/8/18 14:30,513
12/8/18 14:30,510
12/8/18 14:30,509
12/8/18 14:30,509
12/8/18 14:30,506
12/8/18 14:30,508
12/8/18 14:30,508
12/8/18 14:30,507
12/8/18 14:30,507
12/8/18 14:30,506
12/8/18 14:30,506
12/8/18 14:30,504
12/8/18 14:30,505
12/8/18 14:30,507
12/8/18 14:30,507
12/8/18 14:30,509
12/8/18 14:30,508
12/8/18 14:30,508
12/8/18 14:30,509
12/8/18 14:30,506
12/8/18 14:30,507
12/8/18 14:30,505
12/8/18 14:30,508
12/8/18 14:30,507
12/8/18 14:30,507
12/8/18 14:30,508
12/8/18 14:30,508
12/8/18 14:30,508
12/8/18 14:30,508
12/8/18 14:30,506
12/8/18 14:30,509
12/8/18 14:30,507
12/8/18 14:30,507
12/8/18 14:30,508
12/8/18 14:30,507
12/8/18 14:30,509
12/8/18 14:30,510
12/8/18 14:30,621
12/8/18 14:30,639
12/8/18 14:30,577
12/8/18 14:30,435
12/8/18 14:30,440
12/8/18 14:30,462
12/8/18 14:30,499
12/8/18 14:30,496
12/8/18 14:30,496
12/8/18 14:30,489
12/8/18 14:30,493
12/8/18 14:30,487
12/8/18 14:30,483
12/8/18 14:30,486
12/8/18 14:30,499
12/8/18 14:30,501
12/8/18 14:30,495
12/8/18 14:30,496
12/8/18 14:30,502
12/8/18 14:30,504
12/8/18 14:30,513
12/8/18 14:30,511
12/8/18 14:30,511
12/8/18 14:30,512
12/8/18 14:30,510
12/8/18 14:30,514
12/8/18 14:30,510
12/8/18 14:30,507
12/8/18 14:30,509
12/8/18 14:30,510
12/8/18 14:30,509
12/8/18 14:30,511
12/8/18 14:30,508
12/8/18 14:30,512
12/8/18 14:30,509
12/8/18 14:30,511
12/8/18 14:30,507
12/8/18 14:30,510
12/8/18 14:30,508
12/8/18 14:30,506
12/8/18 14:30,508
12/8/18 14:30,507
12/8/18 14:30,507
12/8/18 14:30,515
12/8/18 14:30,504
12/8/18 14:30,497
12/8/18 14:30,498
12/8/18 14:30,505
12/8/18 14:30,510
12/8/18 14:30,510
12/8/18 14:30,512
12/8/18 14:30,511
12/8/18 14:30,514
12/8/18 14:30,514
12/8/18 14:30,512
12/8/18 14:30,514
12/8/18 14:30,508
12/8/18 14:30,512
12/8/18 14:30,510
12/8/18 14:30,509
12/8/18 14:30,510
12/8/18 14:30,509
12/8/18 14:30,509
12/8/18 14:30,508
12/8/18 14:30,507
12/8/18 14:30,510
12/8/18 14:30,509
12/8/18 14:30,509
12/8/18 14:30,510
12/8/18 14:30,508
12/8/18 14:30,509
12/8/18 14:30,508
12/8/18 14:30,510
12/8/18 14:30,509
12/8/18 14:30,509
12/8/18 14:30,511
12/8/18 14:30,509
12/8/18 14:30,509
12/8/18 14:30,508
12/8/18 14:30,507
12/8/18 14:30,509
12/8/18 14:30,509
12/8/18 14:30,510
12/8/18 14:30,510
12/8/18 14:30,506
12/8/18 14:30,509
12/8/18 14:30,507
12/8/18 14:30,508
12/8/18 14:30,508
12/8/18 14:30,508
12/8/18 14:30,510
12/8/18 14:30,506
12/8/18 14:30,509
12/8/18 14:30,508
12/8/18 14:30,507
12/8/18 14:30,509
12/8/18 14:30,506
12/8/18 14:30,488
12/8/18 14:30,503
12/8/18 14:30,501
12/8/18 14:30,504
12/8/18 14:30,510
12/8/18 14:30,516
12/8/18 14:30,518
12/8/18 14:30,517
12/8/18 14:30,517
12/8/18 14:30,513
12/8/18 14:30,515
12/8/18 14:30,512
12/8/18 14:30,510
12/8/18 14:30,511
12/8/18 14:30,508
12/8/18 14:30,510
12/8/18 14:30,507
12/8/18 14:30,506
12/8/18 14:30,507
12/8/18 14:30,505
12/8/18 14:30,507
12/8/18 14:30,507
12/8/18 14:30,505
12/8/18 14:30,506
12/8/18 14:30,505
12/8/18 14:30,508
12/8/18 14:30,506
12/8/18 14:30,507
12/8/18 14:30,508
12/8/18 14:30,503
12/8/18 14:30,508
12/8/18 14:30,506
12/8/18 14:30,507
12/8/18 14:30,508
12/8/18 14:30,505
12/8/18 14:30,508
12/8/18 14:30,508
12/8/18 14:30,507
12/8/18 14:30,507
12/8/18 14:30,508
12/8/18 14:30,509
12/8/18 14:30,506
12/8/18 14:30,536
12/8/18 14:30,601
12/8/18 14:30,650
12/8/18 14:30,509
12/8/18 14:30,464
12/8/18 14:30,463
12/8/18 14:30,469
12/8/18 14:30,475
12/8/18 14:30,466
12/8/18 14:30,478
12/8/18 14:30,491
12/8/18 14:30,502
12/8/18 14:30,493
12/8/18 14:30,495
12/8/18 14:30,497
12/8/18 14:30,503
12/8/18 14:30,505
12/8/18 14:30,506
12/8/18 14:30,509
12/8/18 14:30,507
12/8/18 14:30,508
12/8/18 14:30,510
12/8/18 14:30,507
12/8/18 14:30,513
12/8/18 14:30,511
12/8/18 14:30,510
12/8/18 14:30,509
12/8/18 14:30,507
12/8/18 14:30,509
12/8/18 14:30,507
12/8/18 14:30,507
12/8/18 14:30,507
12/8/18 14:30,508
12/8/18 14:30,505
12/8/18 14:30,507
12/8/18 14:30,507
12/8/18 14:30,505
12/8/18 14:30,506
12/8/18 14:30,509
12/8/18 14:30,506
12/8/18 14:30,509
12/8/18 14:30,507
12/8/18 14:30,506
12/8/18 14:30,508
12/8/18 14:30,506
12/8/18 14:30,507
12/8/18 14:30,522
12/8/18 14:30,501
12/8/18 14:30,498
12/8/18 14:30,500
12/8/18 14:30,508
12/8/18 14:30,508
12/8/18 14:30,513
12/8/18 14:30,516
12/8/18 14:30,512
12/8/18 14:30,515
12/8/18 14:30,511
12/8/18 14:30,511
12/8/18 14:30,513
12/8/18 14:30,511
12/8/18 14:30,511
12/8/18 14:30,510
12/8/18 14:30,508
12/8/18 14:30,510
12/8/18 14:30,508
12/8/18 14:30,510
12/8/18 14:30,509
12/8/18 14:30,509
12/8/18 14:30,512
12/8/18 14:30,508
12/8/18 14:30,510
12/8/18 14:30,509
12/8/18 14:30,510
12/8/18 14:30,510
12/8/18 14:30,508
12/8/18 14:30,510
12/8/18 14:30,506
12/8/18 14:30,502
12/8/18 14:30,485
12/8/18 14:30,505
12/8/18 14:30,517
12/8/18 14:30,518
12/8/18 14:30,519
12/8/18 14:30,515
12/8/18 14:30,514
12/8/18 14:30,514
12/8/18 14:30,510
12/8/18 14:30,511
12/8/18 14:30,509
12/8/18 14:30,507
12/8/18 14:30,509
12/8/18 14:30,506
12/8/18 14:30,507
12/8/18 14:30,507
12/8/18 14:30,506
12/8/18 14:30,508
12/8/18 14:30,500
12/8/18 14:30,519
12/8/18 14:30,498
12/8/18 14:30,495
12/8/18 14:30,502
12/8/18 14:30,505
12/8/18 14:30,510
12/8/18 14:30,511
12/8/18 14:30,510
12/8/18 14:30,514
12/8/18 14:30,511
12/8/18 14:30,513
12/8/18 14:30,510
12/8/18 14:30,509
12/8/18 14:30,508
12/8/18 14:30,478
12/8/18 14:30,494
12/8/18 14:30,513
12/8/18 14:30,518
12/8/18 14:30,520
12/8/18 14:30,517
12/8/18 14:30,515
12/8/18 14:30,513
12/8/18 14:30,510
12/8/18 14:30,510
12/8/18 14:30,506
12/8/18 14:30,508
12/8/18 14:30,507
12/8/18 14:30,505
12/8/18 14:30,507
12/8/18 14:30,505
12/8/18 14:30,508
12/8/18 14:30,506
12/8/18 14:30,507
12/8/18 14:30,507
12/8/18 14:30,506
12/8/18 14:30,508
12/8/18 14:30,506
12/8/18 14:30,505
12/8/18 14:30,507
12/8/18 14:30,507
12/8/18 14:30,509
12/8/18 14:30,506
12/8/18 14:30,507
12/8/18 14:30,509
12/8/18 14:30,507
12/8/18 14:30,516
12/8/18 14:30,558
12/8/18 14:30,598
12/8/18 14:30,621
12/8/18 14:30,511
12/8/18 14:30,447
12/8/18 14:30,431
12/8/18 14:30,466
12/8/18 14:30,502
12/8/18 14:30,505
12/8/18 14:30,492
12/8/18 14:30,488
12/8/18 14:30,491
12/8/18 14:30,486
12/8/18 14:30,483
12/8/18 14:30,491
12/8/18 14:30,500
12/8/18 14:30,502
12/8/18 14:30,493
12/8/18 14:30,497
12/8/18 14:30,504
12/8/18 14:30,511
12/8/18 14:30,514
12/8/18 14:30,517
12/8/18 14:30,513
12/8/18 14:30,514
12/8/18 14:30,511
12/8/18 14:30,513
12/8/18 14:30,511
12/8/18 14:30,509
12/8/18 14:30,509
12/8/18 14:30,502
12/8/18 14:30,480
12/8/18 14:30,502
12/8/18 14:30,507
12/8/18 14:30,528
12/8/18 14:30,505
12/8/18 14:30,504
12/8/18 14:30,507
12/8/18 14:30,510
12/8/18 14:30,514
12/8/18 14:30,512
12/8/18 14:30,514
12/8/18 14:30,513
12/8/18 14:30,512
12/8/18 14:30,511
12/8/18 14:30,508
12/8/18 14:30,512
12/8/18 14:30,510
12/8/18 14:30,509
12/8/18 14:30,509
12/8/18 14:30,507
12/8/18 14:30,509
12/8/18 14:30,507
12/8/18 14:30,507
12/8/18 14:30,509
12/8/18 14:30,507
12/8/18 14:30,509
12/8/18 14:30,507
12/8/18 14:30,508
12/8/18 14:30,508
12/8/18 14:30,509
12/8/18 14:30,510
12/8/18 14:30,504
12/8/18 14:30,493
12/8/18 14:30,485
12/8/18 14:30,501
12/8/18 14:30,513
12/8/18 14:30,517
12/8/18 14:39,474
12/8/18 14:39,475
12/8/18 14:39,487
12/8/18 14:39,507
12/8/18 14:39,510
12/8/18 14:39,492
12/8/18 14:39,491
12/8/18 14:39,476
12/8/18 14:39,478
12/8/18 14:39,479
12/8/18 14:39,486
12/8/18 14:39,499
12/8/18 14:39,490
12/8/18 14:39,500
12/8/18 14:39,502
12/8/18 14:39,501
12/8/18 14:39,511
12/8/18 14:39,502
12/8/18 14:39,512
12/8/18 14:39,510
12/8/18 14:39,509
12/8/18 14:39,515
12/8/18 14:39,503
12/8/18 14:39,512
12/8/18 14:39,509
12/8/18 14:39,506
12/8/18 14:39,515
12/8/18 14:39,506
12/8/18 14:39,513
12/8/18 14:39,509
12/8/18 14:39,505
12/8/18 14:39,514
12/8/18 14:39,504
12/8/18 14:39,512
12/8/18 14:39,508
12/8/18 14:39,506
12/8/18 14:39,512
12/8/18 14:39,503
12/8/18 14:39,511
12/8/18 14:39,506
12/8/18 14:39,507
12/8/18 14:39,513
12/8/18 14:39,498
12/8/18 14:39,524
12/8/18 14:39,497
12/8/18 14:39,498
12/8/18 14:39,506
12/8/18 14:39,504
12/8/18 14:39,515
12/8/18 14:39,510
12/8/18 14:39,510
12/8/18 14:39,518
12/8/18 14:39,507
12/8/18 14:39,517
12/8/18 14:39,507
12/8/18 14:39,510
12/8/18 14:39,514
12/8/18 14:39,505
12/8/18 14:39,516
12/8/18 14:39,506
12/8/18 14:39,510
12/8/18 14:39,514
12/8/18 14:39,504
12/8/18 14:39,514
12/8/18 14:39,507
12/8/18 14:39,510
12/8/18 14:39,511
12/8/18 14:39,507
12/8/18 14:39,513
12/8/18 14:39,505
12/8/18 14:39,510
12/8/18 14:39,510
12/8/18 14:39,504
12/8/18 14:39,514
12/8/18 14:39,504
12/8/18 14:39,508
12/8/18 14:39,511
12/8/18 14:39,484
12/8/18 14:39,498
12/8/18 14:39,507
12/8/18 14:39,518
12/8/18 14:39,520
12/8/18 14:39,511
12/8/18 14:39,520
12/8/18 14:39,509
12/8/18 14:39,514
12/8/18 14:39,512
12/8/18 14:39,507
12/8/18 14:39,514
12/8/18 14:39,503
12/8/18 14:39,510
12/8/18 14:39,507
12/8/18 14:39,504
12/8/18 14:39,509
12/8/18 14:39,503
12/8/18 14:39,509
12/8/18 14:39,508
12/8/18 14:39,505
12/8/18 14:39,511
12/8/18 14:39,501
12/8/18 14:39,511
12/8/18 14:39,506
12/8/18 14:39,505
12/8/18 14:39,510
12/8/18 14:39,504
12/8/18 14:39,510
12/8/18 14:39,507
12/8/18 14:39,505
12/8/18 14:39,512
12/8/18 14:39,502
12/8/18 14:39,512
12/8/18 14:39,506
12/8/18 14:39,504
12/8/18 14:39,513
12/8/18 14:39,503
12/8/18 14:39,510
12/8/18 14:39,522
12/8/18 14:39,500
12/8/18 14:39,501
12/8/18 14:39,495
12/8/18 14:39,510
12/8/18 14:39,507
12/8/18 14:39,508
12/8/18 14:39,514
12/8/18 14:39,507
12/8/18 14:39,517
12/8/18 14:39,507
12/8/18 14:39,508
12/8/18 14:39,513
12/8/18 14:39,503
12/8/18 14:39,514
12/8/18 14:39,504
12/8/18 14:39,508
12/8/18 14:39,510
12/8/18 14:39,503
12/8/18 14:39,513
12/8/18 14:39,536
12/8/18 14:39,608
12/8/18 14:39,640
12/8/18 14:39,495
12/8/18 14:39,468
12/8/18 14:39,457
12/8/18 14:39,488
12/8/18 14:39,503
12/8/18 14:39,486
12/8/18 14:39,486
12/8/18 14:39,477
12/8/18 14:39,488
12/8/18 14:39,496
12/8/18 14:39,487
12/8/18 14:39,489
12/8/18 14:39,487
12/8/18 14:39,501
12/8/18 14:39,499
12/8/18 14:39,493
12/8/18 14:39,504
12/8/18 14:39,473
12/8/18 14:39,506
12/8/18 14:39,503
12/8/18 14:39,504
12/8/18 14:39,519
12/8/18 14:39,515
12/8/18 14:39,520
12/8/18 14:39,519
12/8/18 14:39,513
12/8/18 14:39,522
12/8/18 14:39,509
12/8/18 14:39,516
12/8/18 14:39,512
12/8/18 14:39,507
12/8/18 14:39,515
12/8/18 14:39,505
12/8/18 14:39,510
12/8/18 14:39,509
12/8/18 14:39,506
12/8/18 14:39,513
12/8/18 14:39,503
12/8/18 14:39,510
12/8/18 14:39,506
12/8/18 14:39,504
12/8/18 14:39,512
12/8/18 14:39,502
12/8/18 14:39,511
12/8/18 14:39,506
12/8/18 14:39,506
12/8/18 14:39,511
12/8/18 14:39,503
12/8/18 14:39,511
12/8/18 14:39,508
12/8/18 14:39,506
12/8/18 14:39,511
12/8/18 14:39,502
12/8/18 14:39,513
12/8/18 14:39,507
12/8/18 14:39,508
12/8/18 14:39,513
12/8/18 14:39,503
12/8/18 14:39,513
12/8/18 14:39,507
12/8/18 14:39,507
12/8/18 14:39,513
12/8/18 14:39,505
12/8/18 14:39,515
12/8/18 14:39,508
12/8/18 14:39,508
12/8/18 14:39,514
12/8/18 14:39,504
12/8/18 14:39,514
12/8/18 14:39,506
12/8/18 14:39,509
12/8/18 14:39,513
12/8/18 14:39,503
12/8/18 14:39,492
12/8/18 14:39,499
12/8/18 14:39,515
12/8/18 14:39,521
12/8/18 14:39,513
12/8/18 14:39,521
12/8/18 14:39,511
12/8/18 14:39,512
12/8/18 14:39,512
12/8/18 14:39,520
12/8/18 14:39,509
12/8/18 14:39,496
12/8/18 14:39,502
12/8/18 14:39,508
12/8/18 14:39,506
12/8/18 14:39,516
12/8/18 14:39,507
12/8/18 14:39,512
12/8/18 14:39,513
12/8/18 14:39,506
12/8/18 14:39,514
12/8/18 14:39,505
12/8/18 14:39,511
12/8/18 14:39,510
12/8/18 14:39,504
12/8/18 14:39,512
12/8/18 14:39,501
12/8/18 14:39,484
12/8/18 14:39,500
12/8/18 14:39,509
12/8/18 14:39,522
12/8/18 14:39,514
12/8/18 14:39,519
12/8/18 14:39,513
12/8/18 14:39,507
12/8/18 14:39,514
12/8/18 14:39,505
12/8/18 14:39,509
12/8/18 14:39,508
12/8/18 14:39,503
12/8/18 14:39,511
12/8/18 14:39,502
12/8/18 14:39,509
12/8/18 14:39,506
12/8/18 14:39,503
12/8/18 14:39,511
12/8/18 14:39,502
12/8/18 14:39,509
12/8/18 14:39,506
12/8/18 14:39,504
12/8/18 14:39,512
12/8/18 14:39,502
12/8/18 14:39,511
12/8/18 14:39,506
12/8/18 14:39,500
12/8/18 14:39,525
12/8/18 14:39,494
12/8/18 14:39,502
12/8/18 14:39,500
12/8/18 14:39,502
12/8/18 14:39,512
12/8/18 14:39,507
12/8/18 14:39,537
12/8/18 14:39,616
12/8/18 14:39,614
12/8/18 14:39,607
12/8/18 14:39,460
12/8/18 14:39,435
12/8/18 14:39,452
12/8/18 14:39,476
12/8/18 14:39,496
12/8/18 14:39,492
12/8/18 14:39,494
12/8/18 14:39,476
12/8/18 14:39,482
12/8/18 14:39,494
12/8/18 14:39,482
12/8/18 14:39,491
12/8/18 14:39,497
12/8/18 14:39,498
12/8/18 14:39,500
12/8/18 14:39,495
12/8/18 14:39,510
12/8/18 14:39,504
12/8/18 14:39,512
12/8/18 14:39,514
12/8/18 14:39,508
12/8/18 14:39,518
12/8/18 14:39,509
12/8/18 14:39,512
12/8/18 14:39,492
12/8/18 14:39,494
12/8/18 14:39,519
12/8/18 14:39,515
12/8/18 14:39,522
12/8/18 14:39,519
12/8/18 14:39,513
12/8/18 14:39,519
12/8/18 14:39,505
12/8/18 14:39,527
12/8/18 14:39,504
12/8/18 14:39,496
12/8/18 14:39,507
12/8/18 14:39,501
12/8/18 14:39,511
12/8/18 14:39,510
12/8/18 14:39,507
12/8/18 14:39,517
12/8/18 14:39,505
12/8/18 14:39,514
12/8/18 14:39,509
12/8/18 14:39,504
12/8/18 14:39,513
12/8/18 14:39,504
12/8/18 14:39,513
12/8/18 14:39,508
12/8/18 14:39,504
12/8/18 14:39,510
12/8/18 14:39,502
12/8/18 14:39,513
12/8/18 14:39,508
12/8/18 14:39,504
12/8/18 14:39,512
12/8/18 14:39,503
12/8/18 14:39,511
12/8/18 14:39,507
12/8/18 14:39,507
12/8/18 14:39,514
12/8/18 14:39,502
12/8/18 14:39,513
12/8/18 14:39,509
12/8/18 14:39,507
12/8/18 14:39,513
12/8/18 14:39,504
12/8/18 14:39,514
12/8/18 14:39,508
12/8/18 14:39,507
12/8/18 14:39,511
12/8/18 14:39,505
12/8/18 14:39,515
12/8/18 14:39,504
12/8/18 14:39,509
12/8/18 14:39,513
12/8/18 14:39,504
12/8/18 14:39,515
12/8/18 14:39,506
12/8/18 14:39,508
12/8/18 14:39,512
12/8/18 14:39,503
12/8/18 14:39,513
12/8/18 14:39,504
12/8/18 14:39,510
12/8/18 14:39,514
12/8/18 14:39,505
12/8/18 14:39,513
12/8/18 14:39,505
12/8/18 14:39,509
12/8/18 14:39,510
12/8/18 14:39,503
12/8/18 14:39,512
12/8/18 14:39,505
12/8/18 14:39,507
12/8/18 14:39,510
12/8/18 14:39,501
12/8/18 14:39,493
12/8/18 14:39,491
12/8/18 14:39,512
12/8/18 14:39,519
12/8/18 14:39,513
12/8/18 14:39,521
12/8/18 14:39,508
12/8/18 14:39,515
12/8/18 14:39,513
12/8/18 14:39,507
12/8/18 14:39,513
12/8/18 14:39,502
12/8/18 14:39,510
12/8/18 14:39,509
12/8/18 14:39,504
12/8/18 14:39,510
12/8/18 14:39,502
12/8/18 14:39,509
12/8/18 14:39,507
12/8/18 14:39,503
12/8/18 14:39,511
12/8/18 14:39,502
12/8/18 14:39,510
12/8/18 14:39,507
12/8/18 14:39,505
12/8/18 14:39,511
12/8/18 14:39,502
12/8/18 14:39,511
12/8/18 14:39,507
12/8/18 14:39,505
12/8/18 14:39,512
12/8/18 14:39,502
12/8/18 14:39,511
12/8/18 14:39,508
12/8/18 14:39,504
12/8/18 14:39,511
12/8/18 14:39,503
12/8/18 14:39,510
12/8/18 14:39,592
12/8/18 14:39,631
12/8/18 14:39,598
12/8/18 14:39,455
12/8/18 14:39,452
12/8/18 14:39,449
12/8/18 14:39,468
12/8/18 14:39,495
12/8/18 14:39,484
12/8/18 14:39,498
12/8/18 14:39,487
12/8/18 14:39,486
12/8/18 14:39,501
12/8/18 14:39,494
12/8/18 14:39,499
12/8/18 14:39,494
12/8/18 14:39,498
12/8/18 14:39,508
12/8/18 14:39,503
12/8/18 14:39,514
12/8/18 14:39,508
12/8/18 14:39,511
12/8/18 14:39,516
12/8/18 14:39,508
12/8/18 14:39,517
12/8/18 14:39,509
12/8/18 14:39,509
12/8/18 14:39,513
12/8/18 14:39,504
12/8/18 14:39,513
12/8/18 14:39,504
12/8/18 14:39,507
12/8/18 14:39,509
12/8/18 14:39,502
12/8/18 14:39,513
12/8/18 14:39,502
12/8/18 14:39,507
12/8/18 14:39,511
12/8/18 14:39,502
12/8/18 14:39,513
12/8/18 14:39,501
12/8/18 14:39,508
12/8/18 14:39,508
12/8/18 14:39,501
12/8/18 14:39,527
12/8/18 14:39,497
12/8/18 14:39,500
12/8/18 14:39,502
12/8/18 14:39,488
12/8/18 14:39,497
12/8/18 14:39,510
12/8/18 14:39,522
12/8/18 14:39,522
12/8/18 14:39,518
12/8/18 14:39,523
12/8/18 14:39,511
12/8/18 14:39,517
12/8/18 14:39,511
12/8/18 14:39,508
12/8/18 14:39,516
12/8/18 14:39,504
12/8/18 14:39,513
12/8/18 14:39,510
12/8/18 14:39,505
12/8/18 14:39,514
12/8/18 14:39,504
12/8/18 14:39,511
12/8/18 14:39,507
12/8/18 14:39,505
12/8/18 14:39,513
12/8/18 14:39,502
12/8/18 14:39,512
12/8/18 14:39,507
12/8/18 14:39,507
12/8/18 14:39,513
12/8/18 14:39,504
12/8/18 14:39,512
12/8/18 14:39,506
12/8/18 14:39,508
12/8/18 14:39,511
12/8/18 14:39,500
12/8/18 14:39,508
12/8/18 14:39,520
12/8/18 14:39,499
12/8/18 14:39,503
12/8/18 14:39,498
12/8/18 14:39,513
12/8/18 14:39,509
12/8/18 14:39,511
12/8/18 14:39,515
12/8/18 14:39,507
12/8/18 14:39,515
12/8/18 14:39,508
12/8/18 14:39,510
12/8/18 14:39,512
12/8/18 14:39,504
12/8/18 14:39,516
12/8/18 14:39,506
12/8/18 14:39,508
12/8/18 14:39,512
12/8/18 14:39,490
12/8/18 14:39,493
12/8/18 14:39,505
12/8/18 14:39,516
12/8/18 14:39,520
12/8/18 14:39,511
12/8/18 14:39,518
12/8/18 14:39,508
12/8/18 14:39,512
12/8/18 14:39,512
12/8/18 14:39,505
12/8/18 14:39,512
12/8/18 14:39,503
12/8/18 14:39,508
12/8/18 14:39,508
12/8/18 14:39,503
12/8/18 14:39,510
12/8/18 14:39,501
12/8/18 14:39,507
12/8/18 14:39,507
12/8/18 14:39,503
12/8/18 14:39,512
12/8/18 14:39,502
12/8/18 14:39,510
12/8/18 14:39,508
12/8/18 14:39,502
12/8/18 14:39,512
12/8/18 14:39,503
12/8/18 14:39,510
12/8/18 14:39,507
12/8/18 14:39,505
12/8/18 14:39,513
12/8/18 14:39,503
12/8/18 14:39,512
12/8/18 14:39,508
12/8/18 14:39,505
12/8/18 14:39,526
12/8/18 14:39,607
12/8/18 14:39,619
12/8/18 14:39,573
12/8/18 14:39,453
12/8/18 14:39,457
12/8/18 14:39,462
12/8/18 14:39,497
12/8/18 14:39,509
12/8/18 14:39,503
12/8/18 14:39,498
12/8/18 14:39,475
12/8/18 14:39,469
12/8/18 14:39,465
12/8/18 14:39,478
12/8/18 14:39,494
12/8/18 14:39,478
12/8/18 14:39,478
12/8/18 14:39,495
12/8/18 14:39,512
12/8/18 14:39,524
12/8/18 14:39,518
12/8/18 14:39,526
12/8/18 14:39,517
12/8/18 14:39,517
12/8/18 14:39,519
12/8/18 14:39,509
12/8/18 14:39,518
12/8/18 14:39,506
12/8/18 14:39,520
12/8/18 14:39,509
12/8/18 14:39,492
12/8/18 14:39,505
12/8/18 14:39,501
12/8/18 14:39,507
12/8/18 14:39,514
12/8/18 14:39,508
12/8/18 14:39,517
12/8/18 14:39,510
12/8/18 14:39,514
12/8/18 14:39,513
12/8/18 14:39,506
12/8/18 14:39,514
12/8/18 14:39,506
12/8/18 14:39,510
12/8/18 14:39,509
12/8/18 14:39,505
12/8/18 14:39,513
12/8/18 14:39,506
12/8/18 14:39,508
12/8/18 14:48,510
12/8/18 14:48,510
12/8/18 14:48,507
12/8/18 14:48,509
12/8/18 14:48,508
12/8/18 14:48,508
12/8/18 14:48,508
12/8/18 14:48,507
12/8/18 14:48,510
12/8/18 14:48,507
12/8/18 14:48,508
12/8/18 14:48,511
12/8/18 14:48,508
12/8/18 14:48,510
12/8/18 14:48,507
12/8/18 14:48,509
12/8/18 14:48,508
12/8/18 14:48,508
12/8/18 14:48,511
12/8/18 14:48,506
12/8/18 14:48,511
12/8/18 14:48,509
12/8/18 14:48,507
12/8/18 14:48,510
12/8/18 14:48,509
12/8/18 14:48,508
12/8/18 14:48,510
12/8/18 14:48,509
12/8/18 14:48,509
12/8/18 14:48,509
12/8/18 14:48,509
12/8/18 14:48,507
12/8/18 14:48,507
12/8/18 14:48,511
12/8/18 14:48,507
12/8/18 14:48,509
12/8/18 14:48,509
12/8/18 14:48,507
12/8/18 14:48,508
12/8/18 14:48,507
12/8/18 14:48,509
12/8/18 14:48,510
12/8/18 14:48,507
12/8/18 14:48,508
12/8/18 14:48,507
12/8/18 14:48,505
12/8/18 14:48,524
12/8/18 14:48,500
12/8/18 14:48,495
12/8/18 14:48,499
12/8/18 14:48,507
12/8/18 14:48,509
12/8/18 14:48,510
12/8/18 14:48,514
12/8/18 14:48,513
12/8/18 14:48,514
12/8/18 14:48,510
12/8/18 14:48,510
12/8/18 14:48,512
12/8/18 14:48,506
12/8/18 14:48,479
12/8/18 14:48,498
12/8/18 14:48,516
12/8/18 14:48,506
12/8/18 14:48,506
12/8/18 14:48,513
