X,Bin ECG
5/24/19 14:39,504
5/24/19 14:39,504
5/24/19 14:39,502
5/24/19 14:39,502
5/24/19 14:39,503
5/24/19 14:39,503
5/24/19 14:39,502
5/24/19 14:39,502
5/24/19 14:39,502
5/24/19 14:39,503
5/24/19 14:39,509
5/24/19 14:39,511
5/24/19 14:39,507
5/24/19 14:39,507
5/24/19 14:39,506
5/24/19 14:39,501
5/24/19 14:39,496
5/24/19 14:39,493
5/24/19 14:39,495
5/24/19 14:39,499
5/24/19 14:39,499
5/24/19 14:39,501
5/24/19 14:39,501
5/24/19 14:39,502
5/24/19 14:39,503
5/24/19 14:39,502
5/24/19 14:39,505
5/24/19 14:39,503
5/24/19 14:39,505
5/24/19 14:39,505
5/24/19 14:39,505
5/24/19 14:39,506
5/24/19 14:39,505
5/24/19 14:39,505
5/24/19 14:39,502
5/24/19 14:39,505
5/24/19 14:39,505
5/24/19 14:39,504
5/24/19 14:39,504
5/24/19 14:39,503
5/24/19 14:39,504
5/24/19 14:39,503
5/24/19 14:39,502
5/24/19 14:39,503
5/24/19 14:39,503
5/24/19 14:39,504
5/24/19 14:39,503
5/24/19 14:39,502
5/24/19 14:39,505
5/24/19 14:39,503
5/24/19 14:39,504
5/24/19 14:39,503
5/24/19 14:39,509
5/24/19 14:39,514
5/24/19 14:39,508
5/24/19 14:39,507
5/24/19 14:39,506
5/24/19 14:39,503
5/24/19 14:39,497
5/24/19 14:39,493
5/24/19 14:39,494
5/24/19 14:39,496
5/24/19 14:39,497
5/24/19 14:39,499
5/24/19 14:39,501
5/24/19 14:39,503
5/24/19 14:39,502
5/24/19 14:39,504
5/24/19 14:39,504
5/24/19 14:39,504
5/24/19 14:39,505
5/24/19 14:39,505
5/24/19 14:39,506
5/24/19 14:39,506
5/24/19 14:39,505
5/24/19 14:39,506
5/24/19 14:39,504
5/24/19 14:39,505
5/24/19 14:39,505
5/24/19 14:39,505
5/24/19 14:39,504
5/24/19 14:39,504
5/24/19 14:39,503
5/24/19 14:39,504
5/24/19 14:39,503
5/24/19 14:39,503
5/24/19 14:39,504
5/24/19 14:39,502
5/24/19 14:39,504
5/24/19 14:39,503
5/24/19 14:39,504
5/24/19 14:39,502
5/24/19 14:39,501
5/24/19 14:39,503
5/24/19 14:39,509
5/24/19 14:39,510
5/24/19 14:39,507
5/24/19 14:39,506
5/24/19 14:39,506
5/24/19 14:39,502
5/24/19 14:39,496
5/24/19 14:39,493
5/24/19 14:39,494
5/24/19 14:39,497
5/24/19 14:39,498
5/24/19 14:39,499
5/24/19 14:39,503
5/24/19 14:39,501
5/24/19 14:39,505
5/24/19 14:39,504
5/24/19 14:39,503
5/24/19 14:39,504
5/24/19 14:39,505
5/24/19 14:39,504
5/24/19 14:39,504
5/24/19 14:39,506
5/24/19 14:39,504
5/24/19 14:39,503
5/24/19 14:39,505
5/24/19 14:39,503
5/24/19 14:39,504
5/24/19 14:39,504
5/24/19 14:39,505
5/24/19 14:39,505
5/24/19 14:39,504
5/24/19 14:39,505
5/24/19 14:39,503
5/24/19 14:39,504
5/24/19 14:39,504
5/24/19 14:39,504
5/24/19 14:39,504
5/24/19 14:39,503
5/24/19 14:39,502
5/24/19 14:39,504
5/24/19 14:39,502
5/24/19 14:39,503
5/24/19 14:39,505
5/24/19 14:39,516
5/24/19 14:39,510
5/24/19 14:39,507
5/24/19 14:39,506
5/24/19 14:39,504
5/24/19 14:39,499
5/24/19 14:39,493
5/24/19 14:39,494
5/24/19 14:39,497
5/24/19 14:39,497
5/24/19 14:39,499
5/24/19 14:39,500
5/24/19 14:39,504
5/24/19 14:39,503
5/24/19 14:39,504
5/24/19 14:39,504
5/24/19 14:39,505
5/24/19 14:39,505
5/24/19 14:39,506
5/24/19 14:39,504
5/24/19 14:39,506
5/24/19 14:39,504
5/24/19 14:39,505
5/24/19 14:39,504
5/24/19 14:39,504
5/24/19 14:39,503
5/24/19 14:39,505
5/24/19 14:39,502
5/24/19 14:39,505
5/24/19 14:39,504
5/24/19 14:39,503
5/24/19 14:39,503
5/24/19 14:39,502
5/24/19 14:39,504
5/24/19 14:39,505
5/24/19 14:39,503
5/24/19 14:39,503
5/24/19 14:39,504
5/24/19 14:39,504
5/24/19 14:39,504
5/24/19 14:39,504
5/24/19 14:39,511
5/24/19 14:39,510
5/24/19 14:39,507
5/24/19 14:39,506
5/24/19 14:39,506
5/24/19 14:39,502
5/24/19 14:39,496
5/24/19 14:39,493
5/24/19 14:39,494
5/24/19 14:39,497
5/24/19 14:39,498
5/24/19 14:39,499
5/24/19 14:39,504
5/24/19 14:39,501
5/24/19 14:39,503
5/24/19 14:39,505
5/24/19 14:39,504
5/24/19 14:39,505
5/24/19 14:39,504
5/24/19 14:39,504
5/24/19 14:39,506
5/24/19 14:39,505
5/24/19 14:39,505
5/24/19 14:39,505
5/24/19 14:39,507
5/24/19 14:39,506
5/24/19 14:39,502
5/24/19 14:39,503
5/24/19 14:39,503
5/24/19 14:39,503
5/24/19 14:39,503
5/24/19 14:39,504
5/24/19 14:39,503
5/24/19 14:39,502
5/24/19 14:39,504
5/24/19 14:39,506
5/24/19 14:39,502
5/24/19 14:39,504
5/24/19 14:39,504
5/24/19 14:39,503
5/24/19 14:39,502
5/24/19 14:39,503
5/24/19 14:39,509
5/24/19 14:39,514
5/24/19 14:39,508
5/24/19 14:39,507
5/24/19 14:39,506
5/24/19 14:39,503
5/24/19 14:39,499
5/24/19 14:39,494
5/24/19 14:39,495
5/24/19 14:39,496
5/24/19 14:39,498
5/24/19 14:39,501
5/24/19 14:39,501
5/24/19 14:39,503
5/24/19 14:39,504
5/24/19 14:39,502
5/24/19 14:39,505
5/24/19 14:39,504
5/24/19 14:39,505
5/24/19 14:39,506
5/24/19 14:39,505
5/24/19 14:39,503
5/24/19 14:39,506
5/24/19 14:39,504
5/24/19 14:39,504
5/24/19 14:39,504
5/24/19 14:39,502
5/24/19 14:39,504
5/24/19 14:39,505
5/24/19 14:39,504
5/24/19 14:39,505
5/24/19 14:39,504
5/24/19 14:39,503
5/24/19 14:39,503
5/24/19 14:39,503
5/24/19 14:39,504
5/24/19 14:39,503
5/24/19 14:39,503
5/24/19 14:39,504
5/24/19 14:39,503
5/24/19 14:39,502
5/24/19 14:39,501
5/24/19 14:39,509
5/24/19 14:39,508
5/24/19 14:39,507
5/24/19 14:39,506
5/24/19 14:39,506
5/24/19 14:39,501
5/24/19 14:39,495
5/24/19 14:39,492
5/24/19 14:39,498
5/24/19 14:39,498
5/24/19 14:39,500
5/24/19 14:39,501
5/24/19 14:39,502
5/24/19 14:39,502
5/24/19 14:39,501
5/24/19 14:39,504
5/24/19 14:39,505
5/24/19 14:39,504
5/24/19 14:39,506
5/24/19 14:39,504
5/24/19 14:39,505
5/24/19 14:39,505
5/24/19 14:39,503
5/24/19 14:39,505
5/24/19 14:39,504
5/24/19 14:39,503
5/24/19 14:39,503
5/24/19 14:39,504
5/24/19 14:39,504
5/24/19 14:39,503
5/24/19 14:39,504
5/24/19 14:39,505
5/24/19 14:39,504
5/24/19 14:39,504
5/24/19 14:39,504
5/24/19 14:39,503
5/24/19 14:39,505
5/24/19 14:39,503
5/24/19 14:39,504
5/24/19 14:39,503
5/24/19 14:39,503
5/24/19 14:39,503
5/24/19 14:39,509
5/24/19 14:39,510
5/24/19 14:39,508
5/24/19 14:39,506
5/24/19 14:39,505
5/24/19 14:39,500
5/24/19 14:39,493
5/24/19 14:39,491
5/24/19 14:39,493
5/24/19 14:39,496
5/24/19 14:39,501
5/24/19 14:39,502
5/24/19 14:39,501
5/24/19 14:39,503
5/24/19 14:39,503
5/24/19 14:39,505
5/24/19 14:39,505
5/24/19 14:39,504
5/24/19 14:39,506
5/24/19 14:39,506
5/24/19 14:39,505
5/24/19 14:39,505
5/24/19 14:39,505
5/24/19 14:39,505
5/24/19 14:39,504
5/24/19 14:39,504
5/24/19 14:39,506
5/24/19 14:39,502
5/24/19 14:39,504
5/24/19 14:39,505
5/24/19 14:39,502
5/24/19 14:39,504
5/24/19 14:39,505
5/24/19 14:39,503
5/24/19 14:39,503
5/24/19 14:39,503
5/24/19 14:39,504
5/24/19 14:39,500
5/24/19 14:39,503
5/24/19 14:39,504
5/24/19 14:39,502
5/24/19 14:39,503
5/24/19 14:39,513
5/24/19 14:39,510
5/24/19 14:39,508
5/24/19 14:39,506
5/24/19 14:39,506
5/24/19 14:39,500
5/24/19 14:39,495
5/24/19 14:39,495
5/24/19 14:39,496
5/24/19 14:39,496
5/24/19 14:39,499
5/24/19 14:39,500
5/24/19 14:39,501
5/24/19 14:39,504
5/24/19 14:39,503
5/24/19 14:39,504
5/24/19 14:39,505
5/24/19 14:39,505
5/24/19 14:39,505
5/24/19 14:39,505
5/24/19 14:39,505
5/24/19 14:39,505
5/24/19 14:39,503
5/24/19 14:39,504
5/24/19 14:39,504
5/24/19 14:39,504
5/24/19 14:39,505
5/24/19 14:39,505
5/24/19 14:39,504
5/24/19 14:39,503
5/24/19 14:39,502
5/24/19 14:39,504
5/24/19 14:39,503
5/24/19 14:39,504
5/24/19 14:39,503
5/24/19 14:39,504
5/24/19 14:39,504
5/24/19 14:39,503
5/24/19 14:39,503
5/24/19 14:39,504
5/24/19 14:39,503
5/24/19 14:39,506
5/24/19 14:39,511
5/24/19 14:39,508
5/24/19 14:39,507
5/24/19 14:39,505
5/24/19 14:39,504
5/24/19 14:39,498
5/24/19 14:39,493
5/24/19 14:39,495
5/24/19 14:39,495
5/24/19 14:39,499
5/24/19 14:39,500
5/24/19 14:39,501
5/24/19 14:39,504
5/24/19 14:39,502
5/24/19 14:39,506
5/24/19 14:39,504
5/24/19 14:39,504
5/24/19 14:39,504
5/24/19 14:39,505
5/24/19 14:39,504
5/24/19 14:39,504
5/24/19 14:39,504
5/24/19 14:39,505
5/24/19 14:39,505
5/24/19 14:39,504
5/24/19 14:39,504
5/24/19 14:39,504
5/24/19 14:39,503
5/24/19 14:39,503
5/24/19 14:39,504
5/24/19 14:39,504
5/24/19 14:39,504
5/24/19 14:39,505
5/24/19 14:39,505
5/24/19 14:39,505
5/24/19 14:39,501
5/24/19 14:39,503
5/24/19 14:39,503
5/24/19 14:39,504
5/24/19 14:39,503
5/24/19 14:39,503
5/24/19 14:39,509
5/24/19 14:39,513
5/24/19 14:39,506
5/24/19 14:39,506
5/24/19 14:39,506
5/24/19 14:39,501
5/24/19 14:39,497
5/24/19 14:39,493
5/24/19 14:39,493
5/24/19 14:39,495
5/24/19 14:39,496
5/24/19 14:39,499
5/24/19 14:39,501
5/24/19 14:39,503
5/24/19 14:39,503
5/24/19 14:39,504
5/24/19 14:39,505
5/24/19 14:39,506
5/24/19 14:39,505
5/24/19 14:39,505
5/24/19 14:39,506
5/24/19 14:39,505
5/24/19 14:39,506
5/24/19 14:39,506
5/24/19 14:39,504
5/24/19 14:39,505
5/24/19 14:39,503
5/24/19 14:39,503
5/24/19 14:39,505
5/24/19 14:39,502
5/24/19 14:39,504
5/24/19 14:39,502
5/24/19 14:39,503
5/24/19 14:39,503
5/24/19 14:39,502
5/24/19 14:39,503
5/24/19 14:39,503
5/24/19 14:39,502
5/24/19 14:39,504
5/24/19 14:39,502
5/24/19 14:39,502
5/24/19 14:39,503
5/24/19 14:39,510
5/24/19 14:39,510
5/24/19 14:39,509
5/24/19 14:39,508
5/24/19 14:39,506
5/24/19 14:39,502
5/24/19 14:39,497
5/24/19 14:39,494
5/24/19 14:39,492
5/24/19 14:39,497
5/24/19 14:39,498
5/24/19 14:39,500
5/24/19 14:39,501
5/24/19 14:39,504
5/24/19 14:39,503
5/24/19 14:39,504
5/24/19 14:39,504
5/24/19 14:39,506
5/24/19 14:39,505
5/24/19 14:39,506
5/24/19 14:39,506
5/24/19 14:39,504
5/24/19 14:39,506
5/24/19 14:39,504
5/24/19 14:39,503
5/24/19 14:39,504
5/24/19 14:39,505
5/24/19 14:39,502
5/24/19 14:39,502
5/24/19 14:39,504
5/24/19 14:39,505
5/24/19 14:39,503
5/24/19 14:39,502
5/24/19 14:39,504
5/24/19 14:39,502
5/24/19 14:39,504
5/24/19 14:39,503
5/24/19 14:39,503
5/24/19 14:39,504
5/24/19 14:39,503
5/24/19 14:39,503
5/24/19 14:39,503
5/24/19 14:39,505
5/24/19 14:39,514
5/24/19 14:39,507
5/24/19 14:39,506
5/24/19 14:39,506
5/24/19 14:39,503
5/24/19 14:39,498
5/24/19 14:39,494
5/24/19 14:39,495
5/24/19 14:39,497
5/24/19 14:39,497
5/24/19 14:39,502
5/24/19 14:39,500
5/24/19 14:39,503
5/24/19 14:39,505
5/24/19 14:39,505
5/24/19 14:39,504
5/24/19 14:39,505
5/24/19 14:39,503
5/24/19 14:39,504
5/24/19 14:39,504
5/24/19 14:39,506
5/24/19 14:39,506
5/24/19 14:39,505
5/24/19 14:39,505
5/24/19 14:39,503
5/24/19 14:39,503
5/24/19 14:39,503
5/24/19 14:39,504
5/24/19 14:39,505
5/24/19 14:39,505
5/24/19 14:39,504
5/24/19 14:39,504
5/24/19 14:39,503
5/24/19 14:39,504
5/24/19 14:39,503
5/24/19 14:39,504
5/24/19 14:39,503
5/24/19 14:39,503
5/24/19 14:39,503
5/24/19 14:39,502
5/24/19 14:39,503
5/24/19 14:39,511
5/24/19 14:39,511
5/24/19 14:39,506
5/24/19 14:39,503
5/24/19 14:39,505
5/24/19 14:39,502
5/24/19 14:39,498
5/24/19 14:39,495
5/24/19 14:39,494
5/24/19 14:39,497
5/24/19 14:39,497
5/24/19 14:39,498
5/24/19 14:39,501
5/24/19 14:39,503
5/24/19 14:39,505
5/24/19 14:39,503
5/24/19 14:39,504
5/24/19 14:39,504
5/24/19 14:39,506
5/24/19 14:39,505
5/24/19 14:39,505
5/24/19 14:39,505
5/24/19 14:39,505
5/24/19 14:39,505
5/24/19 14:39,504
5/24/19 14:39,503
5/24/19 14:39,504
5/24/19 14:39,504
5/24/19 14:39,503
5/24/19 14:39,505
5/24/19 14:39,505
5/24/19 14:39,503
5/24/19 14:39,505
5/24/19 14:39,502
5/24/19 14:39,503
5/24/19 14:39,502
5/24/19 14:39,503
5/24/19 14:39,504
5/24/19 14:39,503
5/24/19 14:39,503
5/24/19 14:39,504
5/24/19 14:39,503
5/24/19 14:39,509
5/24/19 14:39,510
5/24/19 14:39,507
5/24/19 14:48,502
5/24/19 14:48,502
5/24/19 14:48,504
5/24/19 14:48,503
5/24/19 14:48,502
5/24/19 14:48,502
5/24/19 14:48,502
5/24/19 14:48,503
5/24/19 14:48,504
5/24/19 14:48,503
5/24/19 14:48,502
5/24/19 14:48,502
5/24/19 14:48,509
5/24/19 14:48,512
5/24/19 14:48,508
5/24/19 14:48,506
5/24/19 14:48,507
5/24/19 14:48,501
5/24/19 14:48,498
5/24/19 14:48,494
5/24/19 14:48,493
5/24/19 14:48,495
5/24/19 14:48,498
5/24/19 14:48,500
5/24/19 14:48,502
5/24/19 14:48,505
5/24/19 14:48,504
5/24/19 14:48,503
5/24/19 14:48,503
5/24/19 14:48,504
5/24/19 14:48,504
5/24/19 14:48,505
5/24/19 14:48,505
5/24/19 14:48,506
5/24/19 14:48,503
5/24/19 14:48,505
5/24/19 14:48,505
5/24/19 14:48,503
5/24/19 14:48,504
5/24/19 14:48,504
5/24/19 14:48,503
5/24/19 14:48,505
5/24/19 14:48,503
5/24/19 14:48,504
5/24/19 14:48,505
5/24/19 14:48,502
5/24/19 14:48,503
5/24/19 14:48,504
5/24/19 14:48,503
5/24/19 14:48,503
5/24/19 14:48,503
5/24/19 14:48,503
5/24/19 14:48,503
5/24/19 14:48,503
5/24/19 14:48,512
5/24/19 14:48,508
5/24/19 14:48,507
5/24/19 14:48,506
5/24/19 14:48,504
5/24/19 14:48,501
5/24/19 14:48,495
5/24/19 14:48,494
5/24/19 14:48,496
5/24/19 14:48,498
5/24/19 14:48,498
5/24/19 14:48,500
5/24/19 14:48,502
5/24/19 14:48,504
5/24/19 14:48,506
5/24/19 14:48,506
5/24/19 14:48,505
5/24/19 14:48,505
5/24/19 14:48,507
5/24/19 14:48,504
5/24/19 14:48,504
5/24/19 14:48,505
5/24/19 14:48,505
5/24/19 14:48,503
5/24/19 14:48,505
5/24/19 14:48,505
5/24/19 14:48,505
5/24/19 14:48,504
5/24/19 14:48,503
5/24/19 14:48,504
5/24/19 14:48,503
5/24/19 14:48,503
5/24/19 14:48,503
5/24/19 14:48,503
5/24/19 14:48,503
5/24/19 14:48,503
5/24/19 14:48,502
5/24/19 14:48,503
5/24/19 14:48,502
5/24/19 14:48,503
5/24/19 14:48,502
5/24/19 14:48,504
5/24/19 14:48,515
5/24/19 14:48,509
5/24/19 14:48,507
5/24/19 14:48,505
5/24/19 14:48,503
5/24/19 14:48,500
5/24/19 14:48,496
5/24/19 14:48,493
5/24/19 14:48,496
5/24/19 14:48,499
5/24/19 14:48,500
5/24/19 14:48,501
5/24/19 14:48,502
5/24/19 14:48,501
5/24/19 14:48,504
5/24/19 14:48,505
5/24/19 14:48,504
5/24/19 14:48,502
5/24/19 14:48,505
5/24/19 14:48,504
5/24/19 14:48,503
5/24/19 14:48,506
5/24/19 14:48,504
5/24/19 14:48,508
5/24/19 14:48,505
5/24/19 14:48,503
5/24/19 14:48,504
5/24/19 14:48,504
5/24/19 14:48,504
5/24/19 14:48,505
5/24/19 14:48,503
5/24/19 14:48,503
5/24/19 14:48,504
5/24/19 14:48,503
5/24/19 14:48,503
5/24/19 14:48,503
5/24/19 14:48,503
5/24/19 14:48,502
5/24/19 14:48,504
5/24/19 14:48,504
5/24/19 14:48,502
5/24/19 14:48,505
5/24/19 14:48,516
5/24/19 14:48,507
5/24/19 14:48,507
5/24/19 14:48,504
5/24/19 14:48,503
5/24/19 14:48,498
5/24/19 14:48,496
5/24/19 14:48,495
5/24/19 14:48,495
5/24/19 14:48,500
5/24/19 14:48,499
5/24/19 14:48,501
5/24/19 14:48,502
5/24/19 14:48,503
5/24/19 14:48,505
5/24/19 14:48,504
5/24/19 14:48,503
5/24/19 14:48,506
5/24/19 14:48,505
5/24/19 14:48,505
5/24/19 14:48,504
5/24/19 14:48,505
5/24/19 14:48,504
5/24/19 14:48,505
5/24/19 14:48,505
5/24/19 14:48,503
5/24/19 14:48,504
5/24/19 14:48,504
5/24/19 14:48,505
5/24/19 14:48,503
5/24/19 14:48,502
5/24/19 14:48,504
5/24/19 14:48,504
5/24/19 14:48,504
5/24/19 14:48,504
5/24/19 14:48,503
5/24/19 14:48,504
5/24/19 14:48,503
5/24/19 14:48,504
5/24/19 14:48,502
5/24/19 14:48,504
5/24/19 14:48,509
5/24/19 14:48,511
5/24/19 14:48,506
5/24/19 14:48,507
5/24/19 14:48,505
5/24/19 14:48,501
5/24/19 14:48,495
5/24/19 14:48,495
5/24/19 14:48,495
5/24/19 14:48,495
5/24/19 14:48,499
5/24/19 14:48,499
5/24/19 14:48,502
5/24/19 14:48,503
5/24/19 14:48,504
5/24/19 14:48,505
5/24/19 14:48,506
5/24/19 14:48,506
5/24/19 14:48,506
5/24/19 14:48,505
5/24/19 14:48,505
5/24/19 14:48,504
5/24/19 14:48,504
5/24/19 14:48,504
5/24/19 14:48,505
5/24/19 14:48,504
5/24/19 14:48,503
5/24/19 14:48,504
5/24/19 14:48,503
5/24/19 14:48,504
5/24/19 14:48,503
5/24/19 14:48,503
5/24/19 14:48,505
5/24/19 14:48,504
5/24/19 14:48,504
5/24/19 14:48,504
5/24/19 14:48,503
5/24/19 14:48,502
5/24/19 14:48,505
5/24/19 14:48,503
5/24/19 14:48,504
5/24/19 14:48,505
5/24/19 14:48,516
5/24/19 14:48,511
5/24/19 14:48,506
5/24/19 14:48,504
5/24/19 14:48,503
5/24/19 14:48,499
5/24/19 14:48,495
5/24/19 14:48,493
5/24/19 14:48,497
5/24/19 14:48,500
5/24/19 14:48,499
5/24/19 14:48,500
5/24/19 14:48,500
5/24/19 14:48,502
5/24/19 14:48,505
5/24/19 14:48,506
5/24/19 14:48,504
5/24/19 14:48,505
5/24/19 14:48,505
5/24/19 14:48,505
5/24/19 14:48,506
5/24/19 14:48,506
5/24/19 14:48,503
5/24/19 14:48,504
5/24/19 14:48,503
5/24/19 14:48,506
5/24/19 14:48,504
5/24/19 14:48,504
5/24/19 14:48,502
5/24/19 14:48,503
5/24/19 14:48,503
5/24/19 14:48,503
5/24/19 14:48,503
5/24/19 14:48,504
5/24/19 14:48,503
5/24/19 14:48,501
5/24/19 14:48,503
5/24/19 14:48,503
5/24/19 14:48,504
5/24/19 14:48,504
5/24/19 14:48,502
5/24/19 14:48,510
5/24/19 14:48,510
5/24/19 14:48,507
5/24/19 14:48,506
5/24/19 14:48,506
5/24/19 14:48,502
5/24/19 14:48,495
5/24/19 14:48,493
5/24/19 14:48,494
5/24/19 14:48,495
5/24/19 14:48,499
5/24/19 14:48,499
5/24/19 14:48,503
5/24/19 14:48,504
5/24/19 14:48,502
5/24/19 14:48,504
5/24/19 14:48,505
5/24/19 14:48,506
5/24/19 14:48,505
5/24/19 14:48,505
5/24/19 14:48,506
5/24/19 14:48,504
5/24/19 14:48,506
5/24/19 14:48,504
5/24/19 14:48,504
5/24/19 14:48,505
5/24/19 14:48,504
5/24/19 14:48,505
5/24/19 14:48,504
5/24/19 14:48,503
5/24/19 14:48,502
5/24/19 14:48,503
5/24/19 14:48,503
5/24/19 14:48,501
5/24/19 14:48,503
5/24/19 14:48,504
5/24/19 14:48,504
5/24/19 14:48,504
5/24/19 14:48,503
5/24/19 14:48,502
5/24/19 14:48,505
5/24/19 14:48,502
5/24/19 14:48,515
5/24/19 14:48,507
5/24/19 14:48,507
5/24/19 14:48,505
5/24/19 14:48,505
5/24/19 14:48,500
5/24/19 14:48,495
5/24/19 14:48,494
5/24/19 14:48,496
5/24/19 14:48,497
5/24/19 14:48,499
5/24/19 14:48,499
5/24/19 14:48,504
5/24/19 14:48,504
5/24/19 14:48,504
5/24/19 14:48,504
5/24/19 14:48,506
5/24/19 14:48,503
5/24/19 14:48,509
5/24/19 14:48,504
5/24/19 14:48,505
5/24/19 14:48,505
5/24/19 14:48,506
5/24/19 14:48,504
5/24/19 14:48,505
5/24/19 14:48,502
5/24/19 14:48,503
5/24/19 14:48,503
5/24/19 14:48,503
5/24/19 14:48,504
5/24/19 14:48,503
5/24/19 14:48,502
5/24/19 14:48,503
5/24/19 14:48,504
5/24/19 14:48,504
5/24/19 14:48,504
5/24/19 14:48,501
5/24/19 14:48,505
5/24/19 14:48,503
5/24/19 14:48,503
5/24/19 14:48,502
5/24/19 14:48,507
5/24/19 14:48,512
5/24/19 14:48,508
5/24/19 14:48,507
5/24/19 14:48,506
5/24/19 14:48,503
5/24/19 14:48,498
5/24/19 14:48,494
5/24/19 14:48,497
5/24/19 14:48,497
5/24/19 14:48,498
5/24/19 14:48,499
5/24/19 14:48,500
5/24/19 14:48,502
5/24/19 14:48,503
5/24/19 14:48,502
5/24/19 14:48,504
5/24/19 14:48,502
5/24/19 14:48,506
5/24/19 14:48,503
5/24/19 14:48,503
5/24/19 14:48,504
5/24/19 14:48,504
5/24/19 14:48,504
5/24/19 14:48,505
5/24/19 14:48,504
5/24/19 14:48,503
5/24/19 14:48,505
5/24/19 14:48,504
5/24/19 14:48,504
5/24/19 14:48,505
5/24/19 14:48,506
5/24/19 14:48,504
5/24/19 14:48,504
5/24/19 14:48,502
5/24/19 14:48,503
5/24/19 14:48,502
5/24/19 14:48,503
5/24/19 14:48,504
5/24/19 14:48,502
5/24/19 14:48,503
5/24/19 14:48,503
5/24/19 14:48,515
5/24/19 14:48,509
5/24/19 14:48,508
5/24/19 14:48,506
5/24/19 14:48,504
5/24/19 14:48,499
5/24/19 14:48,496
5/24/19 14:48,495
5/24/19 14:48,495
5/24/19 14:48,499
5/24/19 14:48,501
5/24/19 14:48,502
5/24/19 14:48,503
5/24/19 14:48,503
5/24/19 14:48,504
5/24/19 14:48,505
5/24/19 14:48,505
5/24/19 14:48,503
5/24/19 14:48,504
5/24/19 14:48,505
5/24/19 14:48,505
5/24/19 14:48,506
5/24/19 14:48,506
5/24/19 14:48,502
5/24/19 14:48,504
5/24/19 14:48,504
5/24/19 14:48,503
5/24/19 14:48,506
5/24/19 14:48,503
5/24/19 14:48,505
5/24/19 14:48,504
5/24/19 14:48,503
5/24/19 14:48,505
5/24/19 14:48,504
5/24/19 14:48,502
5/24/19 14:48,503
5/24/19 14:48,502
5/24/19 14:48,502
5/24/19 14:48,503
5/24/19 14:48,503
5/24/19 14:48,504
5/24/19 14:48,503
5/24/19 14:48,517
5/24/19 14:48,508
5/24/19 14:48,506
5/24/19 14:48,506
5/24/19 14:48,504
5/24/19 14:48,499
5/24/19 14:48,494
5/24/19 14:48,494
5/24/19 14:48,495
5/24/19 14:48,498
5/24/19 14:48,499
5/24/19 14:48,501
5/24/19 14:48,500
5/24/19 14:48,502
5/24/19 14:48,505
5/24/19 14:48,506
5/24/19 14:48,505
5/24/19 14:48,506
5/24/19 14:48,505
5/24/19 14:48,505
5/24/19 14:48,505
5/24/19 14:48,505
5/24/19 14:48,505
5/24/19 14:48,503
5/24/19 14:48,504
5/24/19 14:48,506
5/24/19 14:48,503
5/24/19 14:48,505
5/24/19 14:48,502
5/24/19 14:48,503
5/24/19 14:48,505
5/24/19 14:48,502
5/24/19 14:48,503
5/24/19 14:48,502
5/24/19 14:48,502
5/24/19 14:48,503
5/24/19 14:48,501
5/24/19 14:48,503
5/24/19 14:48,505
5/24/19 14:48,503
5/24/19 14:48,502
5/24/19 14:48,509
5/24/19 14:48,509
5/24/19 14:48,508
5/24/19 14:48,506
5/24/19 14:48,506
5/24/19 14:48,501
5/24/19 14:48,496
5/24/19 14:48,492
5/24/19 14:48,493
5/24/19 14:48,497
5/24/19 14:48,500
5/24/19 14:48,500
5/24/19 14:48,501
5/24/19 14:48,502
5/24/19 14:48,504
5/24/19 14:48,503
5/24/19 14:48,504
5/24/19 14:48,506
5/24/19 14:48,503
5/24/19 14:48,504
5/24/19 14:48,505
5/24/19 14:48,504
5/24/19 14:48,505
5/24/19 14:48,504
5/24/19 14:48,506
5/24/19 14:48,506
5/24/19 14:48,506
5/24/19 14:48,504
5/24/19 14:48,505
5/24/19 14:48,504
5/24/19 14:48,504
5/24/19 14:48,503
5/24/19 14:48,504
5/24/19 14:48,503
5/24/19 14:48,503
5/24/19 14:48,501
5/24/19 14:48,504
5/24/19 14:48,503
5/24/19 14:48,503
5/24/19 14:48,503
5/24/19 14:48,502
5/24/19 14:48,504
5/24/19 14:48,516
5/24/19 14:48,508
5/24/19 14:48,506
5/24/19 14:48,505
5/24/19 14:48,505
5/24/19 14:48,500
5/24/19 14:48,495
5/24/19 14:48,494
5/24/19 14:48,495
5/24/19 14:48,498
5/24/19 14:48,499
5/24/19 14:48,501
5/24/19 14:48,503
5/24/19 14:48,503
5/24/19 14:48,502
5/24/19 14:48,505
5/24/19 14:48,505
5/24/19 14:48,505
5/24/19 14:48,505
5/24/19 14:48,503
5/24/19 14:48,506
5/24/19 14:48,504
5/24/19 14:48,505
5/24/19 14:48,503
5/24/19 14:48,505
5/24/19 14:48,502
5/24/19 14:48,504
5/24/19 14:48,504
5/24/19 14:48,504
5/24/19 14:48,506
5/24/19 14:48,503
5/24/19 14:48,502
5/24/19 14:48,504
5/24/19 14:48,501
5/24/19 14:48,502
5/24/19 14:48,503
5/24/19 14:48,504
5/24/19 14:48,501
5/24/19 14:48,502
5/24/19 14:48,505
5/24/19 14:48,502
5/24/19 14:48,508
5/24/19 14:48,513
5/24/19 14:48,509
5/24/19 14:48,506
5/24/19 14:48,506
5/24/19 14:48,504
5/24/19 14:48,500
5/24/19 14:48,493
5/24/19 14:48,494
5/24/19 14:48,495
5/24/19 14:48,497
5/24/19 14:48,500
5/24/19 14:48,502
5/24/19 14:48,502
5/24/19 14:48,504
5/24/19 14:48,505
5/24/19 14:48,506
5/24/19 14:48,504
5/24/19 14:48,505
5/24/19 14:48,504
5/24/19 14:48,504
5/24/19 14:48,504
5/24/19 14:48,504
5/24/19 14:48,507
5/24/19 14:48,504
5/24/19 14:48,503
5/24/19 14:48,504
5/24/19 14:48,504
5/24/19 14:48,503
5/24/19 14:48,502
5/24/19 14:48,504
5/24/19 14:48,505
5/24/19 14:48,503
5/24/19 14:48,505
5/24/19 14:48,502
5/24/19 14:48,502
5/24/19 14:48,500
5/24/19 14:48,503
5/24/19 14:48,502
5/24/19 14:48,503
5/24/19 14:48,505
5/24/19 14:48,507
5/24/19 14:48,514
5/24/19 14:48,506
5/24/19 14:48,505
5/24/19 14:48,506
5/24/19 14:48,504
5/24/19 14:57,498
5/24/19 14:57,498
5/24/19 14:57,500
5/24/19 14:57,501
5/24/19 14:57,503
5/24/19 14:57,504
5/24/19 14:57,504
5/24/19 14:57,504
5/24/19 14:57,506
5/24/19 14:57,504
5/24/19 14:57,505
5/24/19 14:57,505
5/24/19 14:57,506
5/24/19 14:57,504
5/24/19 14:57,505
5/24/19 14:57,505
5/24/19 14:57,505
5/24/19 14:57,504
5/24/19 14:57,504
5/24/19 14:57,503
5/24/19 14:57,503
5/24/19 14:57,504
5/24/19 14:57,502
5/24/19 14:57,503
5/24/19 14:57,502
5/24/19 14:57,503
5/24/19 14:57,503
5/24/19 14:57,502
5/24/19 14:57,503
5/24/19 14:57,504
5/24/19 14:57,501
5/24/19 14:57,509
5/24/19 14:57,511
5/24/19 14:57,509
5/24/19 14:57,507
5/24/19 14:57,506
5/24/19 14:57,504
5/24/19 14:57,499
5/24/19 14:57,495
5/24/19 14:57,494
5/24/19 14:57,497
5/24/19 14:57,499
5/24/19 14:57,499
5/24/19 14:57,500
5/24/19 14:57,504
5/24/19 14:57,504
5/24/19 14:57,503
5/24/19 14:57,503
5/24/19 14:57,506
5/24/19 14:57,505
5/24/19 14:57,506
5/24/19 14:57,506
5/24/19 14:57,503
5/24/19 14:57,506
5/24/19 14:57,505
5/24/19 14:57,505
5/24/19 14:57,505
5/24/19 14:57,505
5/24/19 14:57,504
5/24/19 14:57,504
5/24/19 14:57,501
5/24/19 14:57,504
5/24/19 14:57,503
5/24/19 14:57,504
5/24/19 14:57,503
5/24/19 14:57,504
5/24/19 14:57,504
5/24/19 14:57,502
5/24/19 14:57,504
5/24/19 14:57,504
5/24/19 14:57,503
5/24/19 14:57,504
5/24/19 14:57,503
5/24/19 14:57,511
5/24/19 14:57,509
5/24/19 14:57,507
5/24/19 14:57,505
5/24/19 14:57,506
5/24/19 14:57,502
5/24/19 14:57,498
5/24/19 14:57,495
5/24/19 14:57,496
5/24/19 14:57,496
5/24/19 14:57,500
5/24/19 14:57,502
5/24/19 14:57,499
5/24/19 14:57,502
5/24/19 14:57,503
5/24/19 14:57,504
5/24/19 14:57,505
5/24/19 14:57,505
5/24/19 14:57,505
5/24/19 14:57,506
5/24/19 14:57,504
5/24/19 14:57,505
5/24/19 14:57,505
5/24/19 14:57,506
5/24/19 14:57,502
5/24/19 14:57,504
5/24/19 14:57,504
5/24/19 14:57,505
5/24/19 14:57,503
5/24/19 14:57,503
5/24/19 14:57,504
5/24/19 14:57,503
5/24/19 14:57,503
5/24/19 14:57,503
5/24/19 14:57,501
5/24/19 14:57,502
5/24/19 14:57,502
5/24/19 14:57,505
5/24/19 14:57,504
5/24/19 14:57,504
5/24/19 14:57,503
5/24/19 14:57,505
5/24/19 14:57,515
5/24/19 14:57,508
5/24/19 14:57,507
5/24/19 14:57,505
5/24/19 14:57,504
5/24/19 14:57,500
5/24/19 14:57,495
5/24/19 14:57,496
5/24/19 14:57,497
5/24/19 14:57,498
5/24/19 14:57,497
5/24/19 14:57,501
5/24/19 14:57,502
5/24/19 14:57,504
5/24/19 14:57,503
5/24/19 14:57,503
5/24/19 14:57,505
5/24/19 14:57,506
5/24/19 14:57,505
5/24/19 14:57,504
5/24/19 14:57,504
5/24/19 14:57,505
5/24/19 14:57,505
5/24/19 14:57,506
5/24/19 14:57,503
5/24/19 14:57,505
5/24/19 14:57,504
5/24/19 14:57,504
5/24/19 14:57,504
5/24/19 14:57,503
5/24/19 14:57,503
5/24/19 14:57,505
5/24/19 14:57,503
5/24/19 14:57,503
5/24/19 14:57,501
5/24/19 14:57,502
5/24/19 14:57,504
5/24/19 14:57,504
5/24/19 14:57,504
5/24/19 14:57,503
5/24/19 14:57,503
5/24/19 14:57,515
5/24/19 14:57,508
5/24/19 14:57,507
5/24/19 14:57,504
5/24/19 14:57,505
5/24/19 14:57,499
5/24/19 14:57,496
5/24/19 14:57,495
5/24/19 14:57,497
5/24/19 14:57,498
5/24/19 14:57,501
5/24/19 14:57,501
5/24/19 14:57,503
5/24/19 14:57,501
5/24/19 14:57,502
5/24/19 14:57,505
5/24/19 14:57,505
5/24/19 14:57,504
5/24/19 14:57,503
5/24/19 14:57,504
5/24/19 14:57,504
5/24/19 14:57,505
5/24/19 14:57,505
5/24/19 14:57,504
5/24/19 14:57,505
5/24/19 14:57,507
5/24/19 14:57,505
5/24/19 14:57,501
5/24/19 14:57,504
5/24/19 14:57,504
5/24/19 14:57,503
5/24/19 14:57,503
5/24/19 14:57,502
5/24/19 14:57,503
5/24/19 14:57,504
5/24/19 14:57,503
5/24/19 14:57,503
5/24/19 14:57,504
5/24/19 14:57,503
5/24/19 14:57,504
5/24/19 14:57,504
5/24/19 14:57,511
5/24/19 14:57,510
5/24/19 14:57,507
5/24/19 14:57,505
5/24/19 14:57,504
5/24/19 14:57,502
5/24/19 14:57,497
5/24/19 14:57,495
5/24/19 14:57,495
5/24/19 14:57,497
5/24/19 14:57,497
5/24/19 14:57,499
5/24/19 14:57,501
5/24/19 14:57,503
5/24/19 14:57,504
5/24/19 14:57,505
5/24/19 14:57,506
5/24/19 14:57,506
5/24/19 14:57,504
5/24/19 14:57,506
5/24/19 14:57,507
5/24/19 14:57,504
5/24/19 14:57,505
5/24/19 14:57,503
5/24/19 14:57,505
5/24/19 14:57,503
5/24/19 14:57,504
5/24/19 14:57,503
5/24/19 14:57,502
5/24/19 14:57,503
5/24/19 14:57,504
5/24/19 14:57,504
5/24/19 14:57,502
5/24/19 14:57,504
5/24/19 14:57,504
5/24/19 14:57,504
5/24/19 14:57,506
5/24/19 14:57,504
5/24/19 14:57,504
5/24/19 14:57,503
5/24/19 14:57,504
5/24/19 14:57,502
5/24/19 14:57,516
5/24/19 14:57,508
5/24/19 14:57,507
5/24/19 14:57,506
5/24/19 14:57,504
5/24/19 14:57,498
5/24/19 14:57,494
5/24/19 14:57,495
5/24/19 14:57,494
5/24/19 14:57,498
5/24/19 14:57,500
5/24/19 14:57,500
5/24/19 14:57,503
5/24/19 14:57,502
5/24/19 14:57,504
5/24/19 14:57,506
5/24/19 14:57,505
5/24/19 14:57,506
5/24/19 14:57,506
5/24/19 14:57,506
5/24/19 14:57,504
5/24/19 14:57,503
5/24/19 14:57,505
5/24/19 14:57,503
5/24/19 14:57,505
5/24/19 14:57,504
5/24/19 14:57,504
5/24/19 14:57,503
5/24/19 14:57,503
5/24/19 14:57,504
5/24/19 14:57,504
5/24/19 14:57,503
5/24/19 14:57,501
5/24/19 14:57,502
5/24/19 14:57,503
5/24/19 14:57,503
5/24/19 14:57,505
5/24/19 14:57,504
5/24/19 14:57,504
5/24/19 14:57,503
5/24/19 14:57,504
5/24/19 14:57,504
5/24/19 14:57,514
5/24/19 14:57,507
5/24/19 14:57,506
5/24/19 14:57,503
5/24/19 14:57,504
5/24/19 14:57,501
5/24/19 14:57,498
5/24/19 14:57,496
5/24/19 14:57,497
5/24/19 14:57,499
5/24/19 14:57,500
5/24/19 14:57,501
5/24/19 14:57,503
5/24/19 14:57,502
5/24/19 14:57,505
5/24/19 14:57,503
5/24/19 14:57,504
5/24/19 14:57,505
5/24/19 14:57,506
5/24/19 14:57,506
5/24/19 14:57,504
5/24/19 14:57,505
5/24/19 14:57,505
5/24/19 14:57,505
5/24/19 14:57,503
5/24/19 14:57,504
5/24/19 14:57,504
5/24/19 14:57,503
5/24/19 14:57,503
5/24/19 14:57,505
5/24/19 14:57,503
5/24/19 14:57,503
5/24/19 14:57,504
5/24/19 14:57,504
5/24/19 14:57,504
5/24/19 14:57,503
5/24/19 14:57,504
5/24/19 14:57,502
5/24/19 14:57,502
5/24/19 14:57,503
5/24/19 14:57,510
5/24/19 14:57,511
5/24/19 14:57,506
5/24/19 14:57,505
5/24/19 14:57,504
5/24/19 14:57,502
5/24/19 14:57,499
5/24/19 14:57,495
5/24/19 14:57,494
5/24/19 14:57,495
5/24/19 14:57,497
5/24/19 14:57,501
5/24/19 14:57,502
5/24/19 14:57,503
5/24/19 14:57,503
5/24/19 14:57,505
5/24/19 14:57,505
5/24/19 14:57,506
5/24/19 14:57,505
5/24/19 14:57,504
5/24/19 14:57,506
5/24/19 14:57,503
5/24/19 14:57,504
5/24/19 14:57,503
5/24/19 14:57,504
5/24/19 14:57,503
5/24/19 14:57,504
5/24/19 14:57,504
5/24/19 14:57,504
5/24/19 14:57,502
5/24/19 14:57,504
5/24/19 14:57,503
5/24/19 14:57,504
5/24/19 14:57,502
5/24/19 14:57,503
5/24/19 14:57,504
5/24/19 14:57,505
5/24/19 14:57,503
5/24/19 14:57,501
5/24/19 14:57,504
5/24/19 14:57,504
5/24/19 14:57,504
5/24/19 14:57,511
5/24/19 14:57,508
5/24/19 14:57,508
5/24/19 14:57,505
5/24/19 14:57,505
5/24/19 14:57,501
5/24/19 14:57,494
5/24/19 14:57,495
5/24/19 14:57,496
5/24/19 14:57,497
5/24/19 14:57,499
5/24/19 14:57,500
5/24/19 14:57,500
5/24/19 14:57,501
5/24/19 14:57,504
5/24/19 14:57,504
5/24/19 14:57,506
5/24/19 14:57,505
5/24/19 14:57,505
5/24/19 14:57,505
5/24/19 14:57,505
5/24/19 14:57,504
5/24/19 14:57,505
5/24/19 14:57,503
5/24/19 14:57,504
5/24/19 14:57,504
5/24/19 14:57,502
5/24/19 14:57,502
5/24/19 14:57,505
5/24/19 14:57,502
5/24/19 14:57,503
5/24/19 14:57,504
5/24/19 14:57,503
5/24/19 14:57,503
5/24/19 14:57,503
5/24/19 14:57,503
5/24/19 14:57,503
5/24/19 14:57,502
5/24/19 14:57,503
5/24/19 14:57,504
5/24/19 14:57,502
5/24/19 14:57,510
5/24/19 14:57,513
5/24/19 14:57,506
5/24/19 14:57,507
5/24/19 14:57,506
5/24/19 14:57,502
5/24/19 14:57,500
5/24/19 14:57,498
5/24/19 14:57,494
5/24/19 14:57,498
5/24/19 14:57,497
5/24/19 14:57,498
5/24/19 14:57,501
5/24/19 14:57,502
5/24/19 14:57,504
5/24/19 14:57,502
5/24/19 14:57,505
5/24/19 14:57,505
5/24/19 14:57,505
5/24/19 14:57,505
5/24/19 14:57,506
5/24/19 14:57,505
5/24/19 14:57,504
5/24/19 14:57,503
5/24/19 14:57,505
5/24/19 14:57,505
5/24/19 14:57,503
5/24/19 14:57,504
5/24/19 14:57,504
5/24/19 14:57,505
5/24/19 14:57,504
5/24/19 14:57,502
5/24/19 14:57,502
5/24/19 14:57,502
5/24/19 14:57,504
5/24/19 14:57,503
5/24/19 14:57,504
5/24/19 14:57,503
5/24/19 14:57,502
5/24/19 14:57,502
5/24/19 14:57,502
5/24/19 14:57,507
5/24/19 14:57,514
5/24/19 14:57,508
5/24/19 14:57,506
5/24/19 14:57,504
5/24/19 14:57,503
5/24/19 14:57,500
5/24/19 14:57,496
5/24/19 14:57,497
5/24/19 14:57,494
5/24/19 14:57,498
5/24/19 14:57,498
5/24/19 14:57,502
5/24/19 14:57,502
5/24/19 14:57,505
5/24/19 14:57,503
5/24/19 14:57,504
5/24/19 14:57,506
5/24/19 14:57,506
5/24/19 14:57,504
5/24/19 14:57,506
5/24/19 14:57,506
5/24/19 14:57,504
5/24/19 14:57,505
5/24/19 14:57,505
5/24/19 14:57,505
5/24/19 14:57,503
5/24/19 14:57,503
5/24/19 14:57,505
5/24/19 14:57,503
5/24/19 14:57,503
5/24/19 14:57,504
5/24/19 14:57,505
5/24/19 14:57,503
5/24/19 14:57,503
5/24/19 14:57,504
5/24/19 14:57,502
5/24/19 14:57,503
5/24/19 14:57,504
5/24/19 14:57,502
5/24/19 14:57,503
5/24/19 14:57,507
5/24/19 14:57,513
5/24/19 14:57,507
5/24/19 14:57,507
5/24/19 14:57,505
5/24/19 14:57,501
5/24/19 14:57,499
5/24/19 14:57,495
5/24/19 14:57,495
5/24/19 14:57,497
5/24/19 14:57,498
5/24/19 14:57,500
5/24/19 14:57,502
5/24/19 14:57,501
5/24/19 14:57,505
5/24/19 14:57,503
5/24/19 14:57,505
5/24/19 14:57,507
5/24/19 14:57,505
5/24/19 14:57,504
5/24/19 14:57,505
5/24/19 14:57,504
5/24/19 14:57,504
5/24/19 14:57,504
5/24/19 14:57,506
5/24/19 14:57,503
5/24/19 14:57,504
5/24/19 14:57,503
5/24/19 14:57,505
5/24/19 14:57,503
5/24/19 14:57,503
5/24/19 14:57,503
5/24/19 14:57,504
5/24/19 14:57,501
5/24/19 14:57,502
5/24/19 14:57,504
5/24/19 14:57,503
5/24/19 14:57,504
5/24/19 14:57,504
5/24/19 14:57,503
5/24/19 14:57,504
5/24/19 14:57,504
5/24/19 14:57,514
5/24/19 14:57,507
5/24/19 14:57,508
5/24/19 14:57,505
5/24/19 14:57,503
5/24/19 14:57,499
5/24/19 14:57,495
5/24/19 14:57,496
5/24/19 14:57,495
5/24/19 14:57,497
5/24/19 14:57,501
5/24/19 14:57,500
5/24/19 14:57,502
5/24/19 14:57,503
5/24/19 14:57,503
5/24/19 14:57,504
5/24/19 14:57,505
5/24/19 14:57,506
5/24/19 14:57,504
5/24/19 14:57,505
5/24/19 14:57,505
5/24/19 14:57,506
5/24/19 14:57,504
5/24/19 14:57,504
5/24/19 14:57,503
5/24/19 14:57,503
5/24/19 14:57,503
5/24/19 14:57,504
5/24/19 14:57,502
5/24/19 14:57,504
5/24/19 14:57,503
5/24/19 14:57,504
5/24/19 14:57,504
5/24/19 14:57,504
5/24/19 14:57,503
5/24/19 14:57,505
5/24/19 14:57,505
5/24/19 14:57,502
5/24/19 14:57,503
5/24/19 14:57,501
5/24/19 14:57,502
5/24/19 14:57,515
5/24/19 14:57,509
5/24/19 14:57,508
5/24/19 14:57,506
5/24/19 14:57,505
5/24/19 14:57,499
5/24/19 14:57,497
5/24/19 14:57,493
5/24/19 14:57,496
5/24/19 14:57,498
5/24/19 14:57,501
5/24/19 14:57,500
5/24/19 14:57,501
5/24/19 14:57,504
5/24/19 14:57,504
5/24/19 14:57,504
5/24/19 14:57,504
5/24/19 14:57,503
5/24/19 14:57,506
5/24/19 14:57,504
5/24/19 14:57,504
5/24/19 14:57,505
5/24/19 14:57,503
5/24/19 14:57,505
5/24/19 14:57,504
5/24/19 14:57,503
5/24/19 14:57,504
5/24/19 14:57,502
5/24/19 14:57,504
5/24/19 14:57,502
5/24/19 14:57,503
5/24/19 15:06,501
5/24/19 15:06,502
5/24/19 15:06,501
5/24/19 15:06,502
5/24/19 15:06,504
5/24/19 15:06,503
5/24/19 15:06,503
5/24/19 15:06,501
5/24/19 15:06,503
5/24/19 15:06,504
5/24/19 15:06,509
5/24/19 15:06,509
5/24/19 15:06,507
5/24/19 15:06,506
5/24/19 15:06,505
5/24/19 15:06,502
5/24/19 15:06,498
5/24/19 15:06,495
5/24/19 15:06,494
5/24/19 15:06,497
5/24/19 15:06,499
5/24/19 15:06,501
5/24/19 15:06,503
5/24/19 15:06,502
5/24/19 15:06,504
5/24/19 15:06,504
5/24/19 15:06,504
5/24/19 15:06,504
5/24/19 15:06,504
5/24/19 15:06,505
5/24/19 15:06,507
5/24/19 15:06,506
5/24/19 15:06,504
5/24/19 15:06,504
5/24/19 15:06,505
5/24/19 15:06,504
5/24/19 15:06,505
5/24/19 15:06,502
5/24/19 15:06,503
5/24/19 15:06,503
5/24/19 15:06,502
5/24/19 15:06,502
5/24/19 15:06,502
5/24/19 15:06,504
5/24/19 15:06,503
5/24/19 15:06,502
5/24/19 15:06,502
5/24/19 15:06,501
5/24/19 15:06,502
5/24/19 15:06,505
5/24/19 15:06,503
5/24/19 15:06,514
5/24/19 15:06,508
5/24/19 15:06,506
5/24/19 15:06,505
5/24/19 15:06,505
5/24/19 15:06,502
5/24/19 15:06,495
5/24/19 15:06,497
5/24/19 15:06,495
5/24/19 15:06,499
5/24/19 15:06,500
5/24/19 15:06,500
5/24/19 15:06,503
5/24/19 15:06,503
5/24/19 15:06,503
5/24/19 15:06,505
5/24/19 15:06,505
5/24/19 15:06,506
5/24/19 15:06,506
5/24/19 15:06,505
5/24/19 15:06,508
5/24/19 15:06,505
5/24/19 15:06,505
5/24/19 15:06,505
5/24/19 15:06,504
5/24/19 15:06,504
5/24/19 15:06,502
5/24/19 15:06,503
5/24/19 15:06,504
5/24/19 15:06,503
5/24/19 15:06,504
5/24/19 15:06,501
5/24/19 15:06,503
5/24/19 15:06,502
5/24/19 15:06,501
5/24/19 15:06,502
5/24/19 15:06,505
5/24/19 15:06,504
5/24/19 15:06,503
5/24/19 15:06,503
5/24/19 15:06,508
5/24/19 15:06,515
5/24/19 15:06,507
5/24/19 15:06,504
5/24/19 15:06,505
5/24/19 15:06,503
5/24/19 15:06,500
5/24/19 15:06,497
5/24/19 15:06,493
5/24/19 15:06,497
5/24/19 15:06,497
5/24/19 15:06,498
5/24/19 15:06,501
5/24/19 15:06,501
5/24/19 15:06,502
5/24/19 15:06,503
5/24/19 15:06,504
5/24/19 15:06,505
5/24/19 15:06,507
5/24/19 15:06,504
5/24/19 15:06,505
5/24/19 15:06,506
5/24/19 15:06,506
5/24/19 15:06,506
5/24/19 15:06,503
5/24/19 15:06,502
5/24/19 15:06,505
5/24/19 15:06,507
5/24/19 15:06,505
5/24/19 15:06,503
5/24/19 15:06,503
5/24/19 15:06,503
5/24/19 15:06,503
5/24/19 15:06,503
5/24/19 15:06,504
5/24/19 15:06,502
5/24/19 15:06,502
5/24/19 15:06,503
5/24/19 15:06,502
5/24/19 15:06,503
5/24/19 15:06,502
5/24/19 15:06,503
5/24/19 15:06,516
5/24/19 15:06,507
5/24/19 15:06,505
5/24/19 15:06,505
5/24/19 15:06,504
5/24/19 15:06,499
5/24/19 15:06,495
5/24/19 15:06,496
5/24/19 15:06,498
5/24/19 15:06,500
5/24/19 15:06,499
5/24/19 15:06,499
5/24/19 15:06,500
5/24/19 15:06,501
5/24/19 15:06,502
5/24/19 15:06,503
5/24/19 15:06,503
5/24/19 15:06,504
5/24/19 15:06,506
5/24/19 15:06,505
5/24/19 15:06,504
5/24/19 15:06,505
5/24/19 15:06,504
5/24/19 15:06,504
5/24/19 15:06,505
5/24/19 15:06,503
5/24/19 15:06,504
5/24/19 15:06,504
5/24/19 15:06,504
5/24/19 15:06,503
5/24/19 15:06,505
5/24/19 15:06,502
5/24/19 15:06,503
5/24/19 15:06,503
5/24/19 15:06,503
5/24/19 15:06,503
5/24/19 15:06,505
5/24/19 15:06,503
5/24/19 15:06,503
5/24/19 15:06,504
5/24/19 15:06,504
5/24/19 15:06,516
5/24/19 15:06,509
5/24/19 15:06,506
5/24/19 15:06,502
5/24/19 15:06,503
5/24/19 15:06,498
5/24/19 15:06,496
5/24/19 15:06,496
5/24/19 15:06,497
5/24/19 15:06,499
5/24/19 15:06,500
5/24/19 15:06,501
5/24/19 15:06,503
5/24/19 15:06,504
5/24/19 15:06,503
5/24/19 15:06,504
5/24/19 15:06,506
5/24/19 15:06,505
5/24/19 15:06,504
5/24/19 15:06,506
5/24/19 15:06,503
5/24/19 15:06,504
5/24/19 15:06,505
5/24/19 15:06,506
5/24/19 15:06,504
5/24/19 15:06,506
5/24/19 15:06,504
5/24/19 15:06,503
5/24/19 15:06,503
5/24/19 15:06,503
5/24/19 15:06,503
5/24/19 15:06,502
5/24/19 15:06,504
5/24/19 15:06,502
5/24/19 15:06,503
5/24/19 15:06,504
5/24/19 15:06,503
5/24/19 15:06,503
5/24/19 15:06,504
5/24/19 15:06,505
5/24/19 15:06,505
5/24/19 15:06,517
5/24/19 15:06,507
5/24/19 15:06,507
5/24/19 15:06,505
5/24/19 15:06,503
5/24/19 15:06,499
5/24/19 15:06,495
5/24/19 15:06,496
5/24/19 15:06,496
5/24/19 15:06,497
5/24/19 15:06,501
5/24/19 15:06,501
5/24/19 15:06,502
5/24/19 15:06,503
5/24/19 15:06,504
5/24/19 15:06,504
5/24/19 15:06,505
5/24/19 15:06,505
5/24/19 15:06,507
5/24/19 15:06,505
5/24/19 15:06,505
5/24/19 15:06,505
5/24/19 15:06,506
5/24/19 15:06,505
5/24/19 15:06,503
5/24/19 15:06,503
5/24/19 15:06,505
5/24/19 15:06,503
5/24/19 15:06,505
5/24/19 15:06,504
5/24/19 15:06,503
5/24/19 15:06,502
5/24/19 15:06,503
5/24/19 15:06,503
5/24/19 15:06,502
5/24/19 15:06,503
5/24/19 15:06,504
5/24/19 15:06,502
5/24/19 15:06,501
5/24/19 15:06,502
5/24/19 15:06,510
5/24/19 15:06,512
5/24/19 15:06,507
5/24/19 15:06,505
5/24/19 15:06,505
5/24/19 15:06,502
5/24/19 15:06,497
5/24/19 15:06,496
5/24/19 15:06,496
5/24/19 15:06,495
5/24/19 15:06,499
5/24/19 15:06,500
5/24/19 15:06,501
5/24/19 15:06,503
5/24/19 15:06,504
5/24/19 15:06,504
5/24/19 15:06,505
5/24/19 15:06,503
5/24/19 15:06,506
5/24/19 15:06,504
5/24/19 15:06,505
5/24/19 15:06,506
5/24/19 15:06,505
5/24/19 15:06,505
5/24/19 15:06,505
5/24/19 15:06,505
5/24/19 15:06,504
5/24/19 15:06,503
5/24/19 15:06,503
5/24/19 15:06,503
5/24/19 15:06,503
5/24/19 15:06,505
5/24/19 15:06,502
5/24/19 15:06,503
5/24/19 15:06,503
5/24/19 15:06,502
5/24/19 15:06,505
5/24/19 15:06,504
5/24/19 15:06,503
5/24/19 15:06,504
5/24/19 15:06,504
5/24/19 15:06,507
5/24/19 15:06,510
5/24/19 15:06,507
5/24/19 15:06,506
5/24/19 15:06,506
5/24/19 15:06,504
5/24/19 15:06,500
5/24/19 15:06,496
5/24/19 15:06,494
5/24/19 15:06,497
5/24/19 15:06,498
5/24/19 15:06,501
5/24/19 15:06,501
5/24/19 15:06,503
5/24/19 15:06,502
5/24/19 15:06,504
5/24/19 15:06,504
5/24/19 15:06,505
5/24/19 15:06,505
5/24/19 15:06,504
5/24/19 15:06,504
5/24/19 15:06,506
5/24/19 15:06,506
5/24/19 15:06,504
5/24/19 15:06,504
5/24/19 15:06,504
5/24/19 15:06,504
5/24/19 15:06,505
5/24/19 15:06,504
5/24/19 15:06,505
5/24/19 15:06,503
5/24/19 15:06,503
5/24/19 15:06,503
5/24/19 15:06,502
5/24/19 15:06,503
5/24/19 15:06,502
5/24/19 15:06,503
5/24/19 15:06,504
5/24/19 15:06,505
5/24/19 15:06,504
5/24/19 15:06,503
5/24/19 15:06,503
5/24/19 15:06,515
5/24/19 15:06,508
5/24/19 15:06,506
5/24/19 15:06,503
5/24/19 15:06,502
5/24/19 15:06,499
5/24/19 15:06,497
5/24/19 15:06,496
5/24/19 15:06,496
5/24/19 15:06,498
5/24/19 15:06,499
5/24/19 15:06,501
5/24/19 15:06,501
5/24/19 15:06,503
5/24/19 15:06,503
5/24/19 15:06,505
5/24/19 15:06,503
5/24/19 15:06,504
5/24/19 15:06,505
5/24/19 15:06,504
5/24/19 15:06,505
5/24/19 15:06,505
5/24/19 15:06,505
5/24/19 15:06,503
5/24/19 15:06,503
5/24/19 15:06,503
5/24/19 15:06,502
5/24/19 15:06,503
5/24/19 15:06,504
5/24/19 15:06,503
5/24/19 15:06,504
5/24/19 15:06,503
5/24/19 15:06,503
5/24/19 15:06,503
5/24/19 15:06,502
5/24/19 15:06,504
5/24/19 15:06,503
5/24/19 15:06,503
5/24/19 15:06,505
5/24/19 15:06,504
5/24/19 15:06,509
5/24/19 15:06,512
5/24/19 15:06,507
5/24/19 15:06,505
5/24/19 15:06,504
5/24/19 15:06,502
5/24/19 15:06,498
5/24/19 15:06,497
5/24/19 15:06,497
5/24/19 15:06,497
5/24/19 15:06,500
5/24/19 15:06,498
5/24/19 15:06,501
5/24/19 15:06,503
5/24/19 15:06,503
5/24/19 15:06,504
5/24/19 15:06,505
5/24/19 15:06,503
5/24/19 15:06,505
5/24/19 15:06,506
5/24/19 15:06,506
5/24/19 15:06,504
5/24/19 15:06,504
5/24/19 15:06,503
5/24/19 15:06,504
5/24/19 15:06,503
5/24/19 15:06,505
5/24/19 15:06,504
5/24/19 15:06,503
5/24/19 15:06,504
5/24/19 15:06,504
5/24/19 15:06,503
5/24/19 15:06,503
5/24/19 15:06,503
5/24/19 15:06,503
5/24/19 15:06,504
5/24/19 15:06,504
5/24/19 15:06,502
5/24/19 15:06,503
5/24/19 15:06,504
5/24/19 15:06,504
5/24/19 15:06,515
5/24/19 15:06,507
5/24/19 15:06,506
5/24/19 15:06,506
5/24/19 15:06,504
5/24/19 15:06,500
5/24/19 15:06,500
5/24/19 15:06,494
5/24/19 15:06,497
5/24/19 15:06,500
5/24/19 15:06,499
5/24/19 15:06,499
5/24/19 15:06,501
5/24/19 15:06,502
5/24/19 15:06,504
5/24/19 15:06,503
5/24/19 15:06,504
5/24/19 15:06,504
5/24/19 15:06,506
5/24/19 15:06,504
5/24/19 15:06,504
5/24/19 15:06,505
5/24/19 15:06,507
5/24/19 15:06,505
5/24/19 15:06,505
5/24/19 15:06,504
5/24/19 15:06,505
5/24/19 15:06,505
5/24/19 15:06,504
5/24/19 15:06,503
5/24/19 15:06,503
5/24/19 15:06,504
5/24/19 15:06,502
5/24/19 15:06,503
5/24/19 15:06,502
5/24/19 15:06,502
5/24/19 15:06,503
5/24/19 15:06,502
5/24/19 15:06,503
5/24/19 15:06,503
5/24/19 15:06,502
5/24/19 15:06,513
5/24/19 15:06,506
5/24/19 15:06,506
5/24/19 15:06,505
5/24/19 15:06,505
5/24/19 15:06,502
5/24/19 15:06,497
5/24/19 15:06,493
5/24/19 15:06,495
5/24/19 15:06,497
5/24/19 15:06,500
5/24/19 15:06,502
5/24/19 15:06,501
5/24/19 15:06,504
5/24/19 15:06,504
5/24/19 15:06,504
5/24/19 15:06,504
5/24/19 15:06,506
5/24/19 15:06,504
5/24/19 15:06,505
5/24/19 15:06,505
5/24/19 15:06,503
5/24/19 15:06,503
5/24/19 15:06,504
5/24/19 15:06,505
5/24/19 15:06,504
5/24/19 15:06,503
5/24/19 15:06,504
5/24/19 15:06,504
5/24/19 15:06,504
5/24/19 15:06,503
5/24/19 15:06,502
5/24/19 15:06,502
5/24/19 15:06,504
5/24/19 15:06,503
5/24/19 15:06,503
5/24/19 15:06,504
5/24/19 15:06,502
5/24/19 15:06,502
5/24/19 15:06,502
5/24/19 15:06,504
5/24/19 15:06,511
5/24/19 15:06,508
5/24/19 15:06,508
5/24/19 15:06,507
5/24/19 15:06,504
5/24/19 15:06,500
5/24/19 15:06,498
5/24/19 15:06,494
5/24/19 15:06,494
5/24/19 15:06,496
5/24/19 15:06,497
5/24/19 15:06,501
5/24/19 15:06,502
5/24/19 15:06,505
5/24/19 15:06,502
5/24/19 15:06,504
5/24/19 15:06,506
5/24/19 15:06,507
5/24/19 15:06,506
5/24/19 15:06,503
5/24/19 15:06,504
5/24/19 15:06,506
5/24/19 15:06,505
5/24/19 15:06,505
5/24/19 15:06,505
5/24/19 15:06,505
5/24/19 15:06,504
5/24/19 15:06,503
5/24/19 15:06,503
5/24/19 15:06,503
5/24/19 15:06,501
5/24/19 15:06,503
5/24/19 15:06,504
5/24/19 15:06,503
5/24/19 15:06,503
5/24/19 15:06,502
5/24/19 15:06,501
5/24/19 15:06,505
5/24/19 15:06,503
5/24/19 15:06,506
5/24/19 15:06,505
5/24/19 15:06,516
5/24/19 15:06,508
5/24/19 15:06,507
5/24/19 15:06,504
5/24/19 15:06,505
5/24/19 15:06,499
5/24/19 15:06,496
5/24/19 15:06,495
5/24/19 15:06,497
5/24/19 15:06,497
5/24/19 15:06,501
5/24/19 15:06,501
5/24/19 15:06,501
5/24/19 15:06,503
5/24/19 15:06,504
5/24/19 15:06,506
5/24/19 15:06,504
5/24/19 15:06,505
5/24/19 15:06,504
5/24/19 15:06,505
5/24/19 15:06,505
5/24/19 15:06,504
5/24/19 15:06,505
5/24/19 15:06,503
5/24/19 15:06,504
5/24/19 15:06,504
5/24/19 15:06,505
5/24/19 15:06,505
5/24/19 15:06,503
5/24/19 15:06,503
5/24/19 15:06,504
5/24/19 15:06,502
5/24/19 15:06,502
5/24/19 15:06,503
5/24/19 15:06,501
5/24/19 15:06,505
5/24/19 15:06,502
5/24/19 15:06,502
5/24/19 15:06,503
5/24/19 15:06,503
5/24/19 15:06,509
5/24/19 15:06,510
5/24/19 15:06,507
5/24/19 15:06,506
5/24/19 15:06,505
5/24/19 15:06,503
5/24/19 15:06,498
5/24/19 15:06,496
5/24/19 15:06,494
5/24/19 15:06,496
5/24/19 15:06,499
5/24/19 15:06,502
5/24/19 15:06,502
5/24/19 15:06,503
5/24/19 15:06,503
5/24/19 15:06,504
5/24/19 15:06,504
5/24/19 15:06,504
5/24/19 15:15,506
5/24/19 15:15,505
5/24/19 15:15,503
5/24/19 15:15,498
5/24/19 15:15,495
5/24/19 15:15,495
5/24/19 15:15,497
5/24/19 15:15,497
5/24/19 15:15,500
5/24/19 15:15,500
5/24/19 15:15,501
5/24/19 15:15,504
5/24/19 15:15,502
5/24/19 15:15,505
5/24/19 15:15,505
5/24/19 15:15,505
5/24/19 15:15,505
5/24/19 15:15,505
5/24/19 15:15,505
5/24/19 15:15,503
5/24/19 15:15,505
5/24/19 15:15,503
5/24/19 15:15,504
5/24/19 15:15,504
5/24/19 15:15,505
5/24/19 15:15,504
5/24/19 15:15,504
5/24/19 15:15,502
5/24/19 15:15,504
5/24/19 15:15,500
5/24/19 15:15,502
5/24/19 15:15,503
5/24/19 15:15,503
5/24/19 15:15,502
5/24/19 15:15,504
5/24/19 15:15,504
5/24/19 15:15,503
5/24/19 15:15,502
5/24/19 15:15,502
5/24/19 15:15,513
5/24/19 15:15,509
5/24/19 15:15,507
5/24/19 15:15,506
5/24/19 15:15,503
5/24/19 15:15,500
5/24/19 15:15,500
5/24/19 15:15,495
5/24/19 15:15,496
5/24/19 15:15,497
5/24/19 15:15,498
5/24/19 15:15,501
5/24/19 15:15,501
5/24/19 15:15,503
5/24/19 15:15,505
5/24/19 15:15,505
5/24/19 15:15,503
5/24/19 15:15,505
5/24/19 15:15,504
5/24/19 15:15,506
5/24/19 15:15,504
5/24/19 15:15,505
5/24/19 15:15,506
5/24/19 15:15,506
5/24/19 15:15,503
5/24/19 15:15,505
5/24/19 15:15,504
5/24/19 15:15,503
5/24/19 15:15,503
5/24/19 15:15,505
5/24/19 15:15,504
5/24/19 15:15,505
5/24/19 15:15,504
5/24/19 15:15,503
5/24/19 15:15,502
5/24/19 15:15,502
5/24/19 15:15,503
5/24/19 15:15,503
5/24/19 15:15,501
5/24/19 15:15,502
5/24/19 15:15,504
5/24/19 15:15,517
5/24/19 15:15,509
5/24/19 15:15,506
5/24/19 15:15,505
5/24/19 15:15,503
5/24/19 15:15,501
5/24/19 15:15,496
5/24/19 15:15,496
5/24/19 15:15,496
5/24/19 15:15,499
5/24/19 15:15,499
5/24/19 15:15,502
5/24/19 15:15,502
5/24/19 15:15,503
5/24/19 15:15,502
5/24/19 15:15,504
5/24/19 15:15,505
5/24/19 15:15,507
5/24/19 15:15,506
5/24/19 15:15,505
5/24/19 15:15,506
5/24/19 15:15,504
5/24/19 15:15,504
5/24/19 15:15,505
5/24/19 15:15,503
5/24/19 15:15,502
5/24/19 15:15,504
5/24/19 15:15,504
5/24/19 15:15,503
5/24/19 15:15,506
5/24/19 15:15,503
5/24/19 15:15,503
5/24/19 15:15,504
5/24/19 15:15,503
5/24/19 15:15,503
5/24/19 15:15,502
5/24/19 15:15,503
5/24/19 15:15,504
5/24/19 15:15,501
5/24/19 15:15,503
5/24/19 15:15,503
5/24/19 15:15,507
5/24/19 15:15,518
5/24/19 15:15,509
5/24/19 15:15,505
5/24/19 15:15,504
5/24/19 15:15,502
5/24/19 15:15,500
5/24/19 15:15,495
5/24/19 15:15,494
5/24/19 15:15,496
5/24/19 15:15,496
5/24/19 15:15,497
5/24/19 15:15,502
5/24/19 15:15,503
5/24/19 15:15,503
5/24/19 15:15,506
5/24/19 15:15,505
5/24/19 15:15,505
5/24/19 15:15,505
5/24/19 15:15,506
5/24/19 15:15,505
5/24/19 15:15,504
5/24/19 15:15,504
5/24/19 15:15,505
5/24/19 15:15,504
5/24/19 15:15,505
5/24/19 15:15,505
5/24/19 15:15,506
5/24/19 15:15,503
5/24/19 15:15,504
5/24/19 15:15,503
5/24/19 15:15,503
5/24/19 15:15,505
5/24/19 15:15,503
5/24/19 15:15,504
5/24/19 15:15,503
5/24/19 15:15,505
5/24/19 15:15,504
5/24/19 15:15,503
5/24/19 15:15,502
5/24/19 15:15,503
5/24/19 15:15,502
5/24/19 15:15,508
5/24/19 15:15,512
5/24/19 15:15,508
5/24/19 15:15,506
5/24/19 15:15,505
5/24/19 15:15,501
5/24/19 15:15,499
5/24/19 15:15,495
5/24/19 15:15,495
5/24/19 15:15,496
5/24/19 15:15,496
5/24/19 15:15,499
5/24/19 15:15,501
5/24/19 15:15,503
5/24/19 15:15,504
5/24/19 15:15,503
5/24/19 15:15,504
5/24/19 15:15,504
5/24/19 15:15,506
5/24/19 15:15,505
5/24/19 15:15,504
5/24/19 15:15,504
5/24/19 15:15,507
5/24/19 15:15,505
5/24/19 15:15,504
5/24/19 15:15,507
5/24/19 15:15,504
5/24/19 15:15,504
5/24/19 15:15,504
5/24/19 15:15,502
5/24/19 15:15,504
5/24/19 15:15,502
5/24/19 15:15,502
5/24/19 15:15,503
5/24/19 15:15,504
5/24/19 15:15,502
5/24/19 15:15,503
5/24/19 15:15,502
5/24/19 15:15,506
5/24/19 15:15,503
5/24/19 15:15,502
5/24/19 15:15,510
5/24/19 15:15,507
5/24/19 15:15,506
5/24/19 15:15,506
5/24/19 15:15,506
5/24/19 15:15,502
5/24/19 15:15,499
5/24/19 15:15,496
5/24/19 15:15,495
5/24/19 15:15,497
5/24/19 15:15,499
5/24/19 15:15,498
5/24/19 15:15,502
5/24/19 15:15,503
5/24/19 15:15,502
5/24/19 15:15,503
5/24/19 15:15,505
5/24/19 15:15,505
5/24/19 15:15,504
5/24/19 15:15,504
5/24/19 15:15,504
5/24/19 15:15,505
5/24/19 15:15,507
5/24/19 15:15,506
5/24/19 15:15,506
5/24/19 15:15,504
5/24/19 15:15,505
5/24/19 15:15,505
5/24/19 15:15,503
5/24/19 15:15,504
5/24/19 15:15,505
5/24/19 15:15,502
5/24/19 15:15,503
5/24/19 15:15,505
5/24/19 15:15,504
5/24/19 15:15,504
5/24/19 15:15,502
5/24/19 15:15,502
5/24/19 15:15,502
5/24/19 15:15,504
5/24/19 15:15,502
5/24/19 15:15,505
5/24/19 15:15,516
5/24/19 15:15,508
5/24/19 15:15,507
5/24/19 15:15,507
5/24/19 15:15,502
5/24/19 15:15,499
5/24/19 15:15,495
5/24/19 15:15,493
5/24/19 15:15,496
5/24/19 15:15,498
5/24/19 15:15,501
5/24/19 15:15,500
5/24/19 15:15,503
5/24/19 15:15,504
5/24/19 15:15,504
5/24/19 15:15,504
5/24/19 15:15,505
5/24/19 15:15,505
5/24/19 15:15,505
5/24/19 15:15,504
5/24/19 15:15,505
5/24/19 15:15,504
5/24/19 15:15,504
5/24/19 15:15,506
5/24/19 15:15,505
5/24/19 15:15,505
5/24/19 15:15,502
5/24/19 15:15,505
5/24/19 15:15,504
5/24/19 15:15,504
5/24/19 15:15,502
5/24/19 15:15,503
5/24/19 15:15,505
5/24/19 15:15,503
5/24/19 15:15,501
5/24/19 15:15,502
5/24/19 15:15,505
5/24/19 15:15,504
5/24/19 15:15,502
5/24/19 15:15,504
5/24/19 15:15,502
5/24/19 15:15,510
5/24/19 15:15,508
5/24/19 15:15,506
5/24/19 15:15,506
5/24/19 15:15,503
5/24/19 15:15,501
5/24/19 15:15,497
5/24/19 15:15,497
5/24/19 15:15,496
5/24/19 15:15,498
5/24/19 15:15,497
5/24/19 15:15,499
5/24/19 15:15,501
5/24/19 15:15,501
5/24/19 15:15,503
5/24/19 15:15,503
5/24/19 15:15,505
5/24/19 15:15,505
5/24/19 15:15,505
5/24/19 15:15,504
5/24/19 15:15,505
5/24/19 15:15,505
5/24/19 15:15,505
5/24/19 15:15,504
5/24/19 15:15,505
5/24/19 15:15,505
5/24/19 15:15,502
5/24/19 15:15,503
5/24/19 15:15,504
5/24/19 15:15,505
5/24/19 15:15,505
5/24/19 15:15,503
5/24/19 15:15,503
5/24/19 15:15,503
5/24/19 15:15,502
5/24/19 15:15,505
5/24/19 15:15,503
5/24/19 15:15,504
5/24/19 15:15,504
5/24/19 15:15,504
5/24/19 15:15,504
5/24/19 15:15,509
5/24/19 15:15,513
5/24/19 15:15,507
5/24/19 15:15,505
5/24/19 15:15,504
5/24/19 15:15,503
5/24/19 15:15,499
5/24/19 15:15,496
5/24/19 15:15,493
5/24/19 15:15,496
5/24/19 15:15,497
5/24/19 15:15,501
5/24/19 15:15,502
5/24/19 15:15,505
5/24/19 15:15,504
5/24/19 15:15,504
5/24/19 15:15,505
5/24/19 15:15,505
5/24/19 15:15,504
5/24/19 15:15,504
5/24/19 15:15,506
5/24/19 15:15,506
5/24/19 15:15,505
5/24/19 15:15,505
5/24/19 15:15,504
5/24/19 15:15,502
5/24/19 15:15,504
5/24/19 15:15,503
5/24/19 15:15,502
5/24/19 15:15,503
5/24/19 15:15,506
5/24/19 15:15,503
5/24/19 15:15,503
5/24/19 15:15,503
5/24/19 15:15,502
5/24/19 15:15,501
5/24/19 15:15,503
5/24/19 15:15,504
5/24/19 15:15,501
5/24/19 15:15,505
5/24/19 15:15,503
5/24/19 15:15,511
5/24/19 15:15,510
5/24/19 15:15,506
5/24/19 15:15,505
5/24/19 15:15,505
5/24/19 15:15,501
5/24/19 15:15,496
5/24/19 15:15,494
5/24/19 15:15,497
5/24/19 15:15,499
5/24/19 15:15,498
5/24/19 15:15,500
5/24/19 15:15,500
5/24/19 15:15,502
5/24/19 15:15,505
5/24/19 15:15,504
5/24/19 15:15,503
5/24/19 15:15,506
5/24/19 15:15,507
5/24/19 15:15,505
5/24/19 15:15,505
5/24/19 15:15,505
5/24/19 15:15,507
5/24/19 15:15,505
5/24/19 15:15,506
5/24/19 15:15,505
5/24/19 15:15,504
5/24/19 15:15,503
5/24/19 15:15,504
5/24/19 15:15,504
5/24/19 15:15,502
5/24/19 15:15,502
5/24/19 15:15,504
5/24/19 15:15,503
5/24/19 15:15,504
5/24/19 15:15,502
5/24/19 15:15,501
5/24/19 15:15,503
5/24/19 15:15,502
5/24/19 15:15,503
5/24/19 15:15,503
5/24/19 15:15,510
5/24/19 15:15,511
5/24/19 15:15,507
5/24/19 15:15,505
5/24/19 15:15,505
5/24/19 15:15,502
5/24/19 15:15,499
5/24/19 15:15,495
5/24/19 15:15,496
5/24/19 15:15,497
5/24/19 15:15,497
5/24/19 15:15,498
5/24/19 15:15,501
5/24/19 15:15,501
5/24/19 15:15,504
5/24/19 15:15,504
5/24/19 15:15,503
5/24/19 15:15,504
5/24/19 15:15,506
5/24/19 15:15,505
5/24/19 15:15,506
5/24/19 15:15,504
5/24/19 15:15,503
5/24/19 15:15,505
5/24/19 15:15,505
5/24/19 15:15,506
5/24/19 15:15,505
5/24/19 15:15,503
5/24/19 15:15,505
5/24/19 15:15,504
5/24/19 15:15,504
5/24/19 15:15,502
5/24/19 15:15,502
5/24/19 15:15,505
5/24/19 15:15,502
5/24/19 15:15,502
5/24/19 15:15,503
5/24/19 15:15,503
5/24/19 15:15,504
5/24/19 15:15,502
5/24/19 15:15,504
5/24/19 15:15,504
5/24/19 15:15,516
5/24/19 15:15,509
5/24/19 15:15,504
5/24/19 15:15,504
5/24/19 15:15,504
5/24/19 15:15,499
5/24/19 15:15,494
5/24/19 15:15,495
5/24/19 15:15,497
5/24/19 15:15,499
5/24/19 15:15,501
5/24/19 15:15,501
5/24/19 15:15,503
5/24/19 15:15,504
5/24/19 15:15,503
5/24/19 15:15,505
5/24/19 15:15,507
5/24/19 15:15,503
5/24/19 15:15,503
5/24/19 15:15,507
5/24/19 15:15,506
5/24/19 15:15,504
5/24/19 15:15,503
5/24/19 15:15,503
5/24/19 15:15,504
5/24/19 15:15,505
5/24/19 15:15,505
5/24/19 15:15,503
5/24/19 15:15,505
5/24/19 15:15,505
5/24/19 15:15,502
5/24/19 15:15,504
5/24/19 15:15,502
5/24/19 15:15,502
5/24/19 15:15,502
5/24/19 15:15,503
5/24/19 15:15,503
5/24/19 15:15,504
5/24/19 15:15,500
5/24/19 15:15,504
5/24/19 15:15,503
5/24/19 15:15,518
5/24/19 15:15,506
5/24/19 15:15,506
5/24/19 15:15,505
5/24/19 15:15,504
5/24/19 15:15,501
5/24/19 15:15,497
5/24/19 15:15,495
5/24/19 15:15,496
5/24/19 15:15,498
5/24/19 15:15,500
5/24/19 15:15,501
5/24/19 15:15,502
5/24/19 15:15,502
5/24/19 15:15,502
5/24/19 15:15,506
5/24/19 15:15,504
5/24/19 15:15,503
5/24/19 15:15,506
5/24/19 15:15,505
5/24/19 15:15,507
5/24/19 15:15,506
5/24/19 15:15,504
5/24/19 15:15,504
5/24/19 15:15,505
5/24/19 15:15,505
5/24/19 15:15,504
5/24/19 15:15,505
5/24/19 15:15,504
5/24/19 15:15,501
5/24/19 15:15,503
5/24/19 15:15,503
5/24/19 15:15,504
5/24/19 15:15,502
5/24/19 15:15,502
5/24/19 15:15,504
5/24/19 15:15,504
5/24/19 15:15,503
5/24/19 15:15,503
5/24/19 15:15,503
5/24/19 15:15,507
5/24/19 15:15,514
5/24/19 15:15,506
5/24/19 15:15,506
5/24/19 15:15,503
5/24/19 15:15,504
5/24/19 15:15,499
5/24/19 15:15,494
5/24/19 15:15,495
5/24/19 15:15,496
5/24/19 15:15,498
5/24/19 15:15,498
5/24/19 15:15,501
5/24/19 15:15,503
5/24/19 15:15,505
5/24/19 15:15,504
5/24/19 15:15,505
5/24/19 15:15,506
5/24/19 15:15,505
5/24/19 15:15,505
5/24/19 15:15,506
5/24/19 15:15,505
5/24/19 15:15,504
5/24/19 15:15,505
5/24/19 15:15,505
5/24/19 15:15,504
5/24/19 15:15,504
5/24/19 15:15,505
5/24/19 15:15,504
5/24/19 15:15,505
5/24/19 15:15,505
5/24/19 15:15,503
5/24/19 15:15,503
5/24/19 15:15,503
5/24/19 15:15,502
5/24/19 15:15,503
5/24/19 15:15,504
5/24/19 15:15,502
5/24/19 15:15,503
5/24/19 15:15,503
5/24/19 15:15,503
5/24/19 15:15,505
5/24/19 15:15,516
5/24/19 15:15,507
5/24/19 15:15,505
5/24/19 15:15,505
5/24/19 15:15,503
5/24/19 15:15,498
5/24/19 15:15,497
5/24/19 15:15,495
5/24/19 15:15,496
5/24/19 15:15,497
5/24/19 15:15,499
5/24/19 15:15,499
5/24/19 15:15,500
5/24/19 15:15,503
5/24/19 15:15,503
5/24/19 15:15,504
5/24/19 15:15,504
5/24/19 15:15,505
5/24/19 15:15,506
5/24/19 15:15,505
5/24/19 15:15,506
5/24/19 15:15,506
5/24/19 15:15,505
5/24/19 15:15,505
5/24/19 15:15,505
5/24/19 15:24,505
5/24/19 15:24,506
5/24/19 15:24,505
5/24/19 15:24,503
5/24/19 15:24,506
5/24/19 15:24,505
5/24/19 15:24,505
5/24/19 15:24,505
5/24/19 15:24,504
5/24/19 15:24,502
5/24/19 15:24,505
5/24/19 15:24,504
5/24/19 15:24,503
5/24/19 15:24,504
5/24/19 15:24,504
5/24/19 15:24,502
5/24/19 15:24,501
5/24/19 15:24,502
5/24/19 15:24,504
5/24/19 15:24,503
5/24/19 15:24,503
5/24/19 15:24,503
5/24/19 15:24,504
5/24/19 15:24,502
5/24/19 15:24,502
5/24/19 15:24,511
5/24/19 15:24,510
5/24/19 15:24,508
5/24/19 15:24,504
5/24/19 15:24,503
5/24/19 15:24,502
5/24/19 15:24,498
5/24/19 15:24,497
5/24/19 15:24,497
5/24/19 15:24,496
5/24/19 15:24,499
5/24/19 15:24,499
5/24/19 15:24,502
5/24/19 15:24,503
5/24/19 15:24,502
5/24/19 15:24,504
5/24/19 15:24,504
5/24/19 15:24,506
5/24/19 15:24,504
5/24/19 15:24,503
5/24/19 15:24,504
5/24/19 15:24,505
5/24/19 15:24,505
5/24/19 15:24,506
5/24/19 15:24,504
5/24/19 15:24,505
5/24/19 15:24,503
5/24/19 15:24,503
5/24/19 15:24,503
5/24/19 15:24,505
5/24/19 15:24,503
5/24/19 15:24,503
5/24/19 15:24,502
5/24/19 15:24,503
5/24/19 15:24,503
5/24/19 15:24,504
5/24/19 15:24,504
5/24/19 15:24,503
5/24/19 15:24,502
5/24/19 15:24,503
5/24/19 15:24,504
5/24/19 15:24,510
5/24/19 15:24,510
5/24/19 15:24,506
5/24/19 15:24,505
5/24/19 15:24,505
5/24/19 15:24,501
5/24/19 15:24,498
5/24/19 15:24,495
5/24/19 15:24,496
5/24/19 15:24,496
5/24/19 15:24,497
5/24/19 15:24,500
5/24/19 15:24,502
5/24/19 15:24,503
5/24/19 15:24,505
5/24/19 15:24,502
5/24/19 15:24,504
5/24/19 15:24,503
5/24/19 15:24,506
5/24/19 15:24,505
5/24/19 15:24,505
5/24/19 15:24,505
5/24/19 15:24,504
5/24/19 15:24,504
5/24/19 15:24,505
5/24/19 15:24,502
5/24/19 15:24,505
5/24/19 15:24,502
5/24/19 15:24,502
5/24/19 15:24,505
5/24/19 15:24,502
5/24/19 15:24,503
5/24/19 15:24,502
5/24/19 15:24,502
5/24/19 15:24,504
5/24/19 15:24,505
5/24/19 15:24,504
5/24/19 15:24,506
5/24/19 15:24,504
5/24/19 15:24,503
5/24/19 15:24,504
5/24/19 15:24,514
5/24/19 15:24,508
5/24/19 15:24,504
5/24/19 15:24,505
5/24/19 15:24,504
5/24/19 15:24,501
5/24/19 15:24,498
5/24/19 15:24,497
5/24/19 15:24,497
5/24/19 15:24,499
5/24/19 15:24,498
5/24/19 15:24,501
5/24/19 15:24,500
5/24/19 15:24,502
5/24/19 15:24,502
5/24/19 15:24,504
5/24/19 15:24,506
5/24/19 15:24,505
5/24/19 15:24,507
5/24/19 15:24,505
5/24/19 15:24,505
5/24/19 15:24,504
5/24/19 15:24,505
5/24/19 15:24,503
5/24/19 15:24,503
5/24/19 15:24,504
5/24/19 15:24,502
5/24/19 15:24,504
5/24/19 15:24,504
5/24/19 15:24,504
5/24/19 15:24,502
5/24/19 15:24,500
5/24/19 15:24,502
5/24/19 15:24,504
5/24/19 15:24,503
5/24/19 15:24,503
5/24/19 15:24,503
5/24/19 15:24,502
5/24/19 15:24,505
5/24/19 15:24,503
5/24/19 15:24,508
5/24/19 15:24,513
5/24/19 15:24,507
5/24/19 15:24,505
5/24/19 15:24,505
5/24/19 15:24,504
5/24/19 15:24,499
5/24/19 15:24,498
5/24/19 15:24,499
5/24/19 15:24,498
5/24/19 15:24,499
5/24/19 15:24,499
5/24/19 15:24,501
5/24/19 15:24,502
5/24/19 15:24,503
5/24/19 15:24,505
5/24/19 15:24,504
5/24/19 15:24,504
5/24/19 15:24,506
5/24/19 15:24,503
5/24/19 15:24,504
5/24/19 15:24,505
5/24/19 15:24,506
5/24/19 15:24,504
5/24/19 15:24,505
5/24/19 15:24,505
5/24/19 15:24,505
5/24/19 15:24,504
5/24/19 15:24,504
5/24/19 15:24,504
5/24/19 15:24,504
5/24/19 15:24,503
5/24/19 15:24,502
5/24/19 15:24,503
5/24/19 15:24,502
5/24/19 15:24,502
5/24/19 15:24,503
5/24/19 15:24,504
5/24/19 15:24,503
5/24/19 15:24,503
5/24/19 15:24,503
5/24/19 15:24,508
5/24/19 15:24,511
5/24/19 15:24,507
5/24/19 15:24,505
5/24/19 15:24,504
5/24/19 15:24,500
5/24/19 15:24,500
5/24/19 15:24,497
5/24/19 15:24,495
5/24/19 15:24,497
5/24/19 15:24,499
5/24/19 15:24,499
5/24/19 15:24,502
5/24/19 15:24,503
5/24/19 15:24,503
5/24/19 15:24,505
5/24/19 15:24,504
5/24/19 15:24,503
5/24/19 15:24,504
5/24/19 15:24,505
5/24/19 15:24,506
5/24/19 15:24,504
5/24/19 15:24,504
5/24/19 15:24,504
5/24/19 15:24,504
5/24/19 15:24,503
5/24/19 15:24,505
5/24/19 15:24,503
5/24/19 15:24,505
5/24/19 15:24,503
5/24/19 15:24,503
5/24/19 15:24,503
5/24/19 15:24,504
5/24/19 15:24,501
5/24/19 15:24,502
5/24/19 15:24,502
5/24/19 15:24,503
5/24/19 15:24,503
5/24/19 15:24,503
5/24/19 15:24,503
5/24/19 15:24,503
5/24/19 15:24,512
5/24/19 15:24,508
5/24/19 15:24,506
5/24/19 15:24,503
5/24/19 15:24,505
5/24/19 15:24,502
5/24/19 15:24,498
5/24/19 15:24,494
5/24/19 15:24,494
5/24/19 15:24,496
5/24/19 15:24,501
5/24/19 15:24,502
5/24/19 15:24,502
5/24/19 15:24,504
5/24/19 15:24,504
5/24/19 15:24,506
5/24/19 15:24,507
5/24/19 15:24,504
5/24/19 15:24,506
5/24/19 15:24,505
5/24/19 15:24,505
5/24/19 15:24,506
5/24/19 15:24,504
5/24/19 15:24,503
5/24/19 15:24,504
5/24/19 15:24,505
5/24/19 15:24,503
5/24/19 15:24,504
5/24/19 15:24,501
5/24/19 15:24,503
5/24/19 15:24,502
5/24/19 15:24,501
5/24/19 15:24,502
5/24/19 15:24,504
5/24/19 15:24,503
5/24/19 15:24,503
5/24/19 15:24,503
5/24/19 15:24,505
5/24/19 15:24,504
5/24/19 15:24,503
5/24/19 15:24,503
5/24/19 15:24,511
5/24/19 15:24,508
5/24/19 15:24,506
5/24/19 15:24,507
5/24/19 15:24,504
5/24/19 15:24,502
5/24/19 15:24,496
5/24/19 15:24,497
5/24/19 15:24,497
5/24/19 15:24,498
5/24/19 15:24,496
5/24/19 15:24,500
5/24/19 15:24,503
5/24/19 15:24,504
5/24/19 15:24,504
5/24/19 15:24,505
5/24/19 15:24,505
5/24/19 15:24,507
5/24/19 15:24,504
5/24/19 15:24,506
5/24/19 15:24,505
5/24/19 15:24,505
5/24/19 15:24,506
5/24/19 15:24,505
5/24/19 15:24,504
5/24/19 15:24,505
5/24/19 15:24,503
5/24/19 15:24,503
5/24/19 15:24,502
5/24/19 15:24,502
5/24/19 15:24,504
5/24/19 15:24,502
5/24/19 15:24,502
5/24/19 15:24,502
5/24/19 15:24,503
5/24/19 15:24,502
5/24/19 15:24,503
5/24/19 15:24,503
5/24/19 15:24,503
5/24/19 15:24,503
5/24/19 15:24,502
5/24/19 15:24,516
5/24/19 15:24,509
5/24/19 15:24,506
5/24/19 15:24,507
5/24/19 15:24,504
5/24/19 15:24,502
5/24/19 15:24,496
5/24/19 15:24,495
5/24/19 15:24,497
5/24/19 15:24,499
5/24/19 15:24,500
5/24/19 15:24,502
5/24/19 15:24,502
5/24/19 15:24,503
5/24/19 15:24,502
5/24/19 15:24,503
5/24/19 15:24,504
5/24/19 15:24,504
5/24/19 15:24,505
5/24/19 15:24,504
5/24/19 15:24,506
5/24/19 15:24,507
5/24/19 15:24,503
5/24/19 15:24,505
5/24/19 15:24,506
5/24/19 15:24,504
5/24/19 15:24,505
5/24/19 15:24,503
5/24/19 15:24,503
5/24/19 15:24,504
5/24/19 15:24,503
5/24/19 15:24,502
5/24/19 15:24,501
5/24/19 15:24,503
5/24/19 15:24,502
5/24/19 15:24,503
5/24/19 15:24,503
5/24/19 15:24,503
5/24/19 15:24,503
5/24/19 15:24,502
5/24/19 15:24,510
5/24/19 15:24,513
5/24/19 15:24,507
5/24/19 15:24,505
5/24/19 15:24,503
5/24/19 15:24,503
5/24/19 15:24,498
5/24/19 15:24,496
5/24/19 15:24,496
5/24/19 15:24,496
5/24/19 15:24,498
5/24/19 15:24,500
5/24/19 15:24,501
5/24/19 15:24,503
5/24/19 15:24,504
5/24/19 15:24,504
5/24/19 15:24,505
5/24/19 15:24,504
5/24/19 15:24,506
5/24/19 15:24,504
5/24/19 15:24,503
5/24/19 15:24,505
5/24/19 15:24,505
5/24/19 15:24,506
5/24/19 15:24,506
5/24/19 15:24,505
5/24/19 15:24,503
5/24/19 15:24,504
5/24/19 15:24,502
5/24/19 15:24,503
5/24/19 15:24,505
5/24/19 15:24,502
5/24/19 15:24,501
5/24/19 15:24,504
5/24/19 15:24,503
5/24/19 15:24,504
5/24/19 15:24,503
5/24/19 15:24,501
5/24/19 15:24,502
5/24/19 15:24,501
5/24/19 15:24,502
5/24/19 15:24,509
5/24/19 15:24,511
5/24/19 15:24,507
5/24/19 15:24,505
5/24/19 15:24,503
5/24/19 15:24,503
5/24/19 15:24,500
5/24/19 15:24,496
5/24/19 15:24,495
5/24/19 15:24,494
5/24/19 15:24,498
5/24/19 15:24,500
5/24/19 15:24,502
5/24/19 15:24,503
5/24/19 15:24,505
5/24/19 15:24,504
5/24/19 15:24,505
5/24/19 15:24,507
5/24/19 15:24,505
5/24/19 15:24,507
5/24/19 15:24,506
5/24/19 15:24,505
5/24/19 15:24,504
5/24/19 15:24,504
5/24/19 15:24,505
5/24/19 15:24,504
5/24/19 15:24,504
5/24/19 15:24,504
5/24/19 15:24,502
5/24/19 15:24,504
5/24/19 15:24,503
5/24/19 15:24,503
5/24/19 15:24,503
5/24/19 15:24,503
5/24/19 15:24,504
5/24/19 15:24,502
5/24/19 15:24,503
5/24/19 15:24,504
5/24/19 15:24,503
5/24/19 15:24,504
5/24/19 15:24,502
5/24/19 15:24,508
5/24/19 15:24,514
5/24/19 15:24,507
5/24/19 15:24,506
5/24/19 15:24,505
5/24/19 15:24,501
5/24/19 15:24,498
5/24/19 15:24,495
5/24/19 15:24,495
5/24/19 15:24,497
5/24/19 15:24,498
5/24/19 15:24,502
5/24/19 15:24,500
5/24/19 15:24,502
5/24/19 15:24,503
5/24/19 15:24,503
5/24/19 15:24,505
5/24/19 15:24,506
5/24/19 15:24,505
5/24/19 15:24,506
5/24/19 15:24,505
5/24/19 15:24,505
5/24/19 15:24,504
5/24/19 15:24,506
5/24/19 15:24,506
5/24/19 15:24,504
5/24/19 15:24,504
5/24/19 15:24,505
5/24/19 15:24,505
5/24/19 15:24,501
5/24/19 15:24,503
5/24/19 15:24,502
5/24/19 15:24,504
5/24/19 15:24,502
5/24/19 15:24,502
5/24/19 15:24,502
5/24/19 15:24,502
5/24/19 15:24,503
5/24/19 15:24,503
5/24/19 15:24,503
5/24/19 15:24,504
5/24/19 15:24,510
5/24/19 15:24,512
5/24/19 15:24,507
5/24/19 15:24,503
5/24/19 15:24,503
5/24/19 15:24,500
5/24/19 15:24,499
5/24/19 15:24,497
5/24/19 15:24,497
5/24/19 15:24,496
5/24/19 15:24,497
5/24/19 15:24,500
5/24/19 15:24,502
5/24/19 15:24,503
5/24/19 15:24,503
5/24/19 15:24,503
5/24/19 15:24,505
5/24/19 15:24,505
5/24/19 15:24,505
5/24/19 15:24,505
5/24/19 15:24,503
5/24/19 15:24,504
5/24/19 15:24,504
5/24/19 15:24,505
5/24/19 15:24,505
5/24/19 15:24,504
5/24/19 15:24,506
5/24/19 15:24,503
5/24/19 15:24,503
5/24/19 15:24,503
5/24/19 15:24,505
5/24/19 15:24,501
5/24/19 15:24,502
5/24/19 15:24,502
5/24/19 15:24,502
5/24/19 15:24,502
5/24/19 15:24,502
5/24/19 15:24,502
5/24/19 15:24,502
5/24/19 15:24,502
5/24/19 15:24,504
5/24/19 15:24,512
5/24/19 15:24,511
5/24/19 15:24,507
5/24/19 15:24,505
5/24/19 15:24,505
5/24/19 15:24,504
5/24/19 15:24,499
5/24/19 15:24,496
5/24/19 15:24,496
5/24/19 15:24,496
5/24/19 15:24,498
5/24/19 15:24,501
5/24/19 15:24,502
5/24/19 15:24,502
5/24/19 15:24,505
5/24/19 15:24,503
5/24/19 15:24,503
5/24/19 15:24,504
5/24/19 15:24,505
5/24/19 15:24,505
5/24/19 15:24,503
5/24/19 15:24,504
5/24/19 15:24,506
5/24/19 15:24,504
5/24/19 15:24,505
5/24/19 15:24,504
5/24/19 15:24,503
5/24/19 15:24,504
5/24/19 15:24,504
5/24/19 15:24,502
5/24/19 15:24,504
5/24/19 15:24,503
5/24/19 15:24,505
5/24/19 15:24,504
5/24/19 15:24,504
5/24/19 15:24,503
5/24/19 15:24,502
5/24/19 15:24,503
5/24/19 15:24,503
5/24/19 15:24,503
5/24/19 15:24,503
5/24/19 15:24,510
5/24/19 15:24,512
5/24/19 15:24,507
5/24/19 15:24,504
5/24/19 15:24,505
5/24/19 15:24,503
5/24/19 15:24,500
5/24/19 15:24,498
5/24/19 15:24,494
5/24/19 15:24,497
5/24/19 15:24,498
5/24/19 15:24,499
5/24/19 15:24,502
5/24/19 15:24,503
5/24/19 15:24,504
5/24/19 15:24,504
5/24/19 15:24,504
5/24/19 15:24,505
5/24/19 15:24,506
5/24/19 15:24,504
5/24/19 15:24,505
5/24/19 15:24,503
5/24/19 15:24,503
5/24/19 15:24,505
5/24/19 15:24,505
5/24/19 15:24,505
5/24/19 15:24,505
5/24/19 15:24,505
5/24/19 15:24,502
5/24/19 15:24,501
5/24/19 15:24,504
5/24/19 15:24,503
5/24/19 15:24,502
5/24/19 15:24,503
5/24/19 15:24,503
5/24/19 15:24,503
5/24/19 15:24,504
5/24/19 15:24,505
5/24/19 15:24,503
5/24/19 15:24,505
5/24/19 15:24,504
5/24/19 15:24,511
5/24/19 15:24,514
5/24/19 15:24,508
5/24/19 15:33,504
5/24/19 15:33,504
5/24/19 15:33,504
5/24/19 15:33,503
5/24/19 15:33,502
5/24/19 15:33,504
5/24/19 15:33,500
5/24/19 15:33,510
5/24/19 15:33,509
5/24/19 15:33,505
5/24/19 15:33,504
5/24/19 15:33,503
5/24/19 15:33,502
5/24/19 15:33,496
5/24/19 15:33,496
5/24/19 15:33,496
5/24/19 15:33,497
5/24/19 15:33,499
5/24/19 15:33,499
5/24/19 15:33,501
5/24/19 15:33,502
5/24/19 15:33,503
5/24/19 15:33,504
5/24/19 15:33,503
5/24/19 15:33,505
5/24/19 15:33,507
5/24/19 15:33,505
5/24/19 15:33,505
5/24/19 15:33,504
5/24/19 15:33,505
5/24/19 15:33,505
5/24/19 15:33,504
5/24/19 15:33,503
5/24/19 15:33,506
5/24/19 15:33,504
5/24/19 15:33,503
5/24/19 15:33,505
5/24/19 15:33,503
5/24/19 15:33,501
5/24/19 15:33,502
5/24/19 15:33,503
5/24/19 15:33,504
5/24/19 15:33,505
5/24/19 15:33,504
5/24/19 15:33,504
5/24/19 15:33,502
5/24/19 15:33,503
5/24/19 15:33,503
5/24/19 15:33,512
5/24/19 15:33,508
5/24/19 15:33,505
5/24/19 15:33,504
5/24/19 15:33,503
5/24/19 15:33,501
5/24/19 15:33,498
5/24/19 15:33,495
5/24/19 15:33,497
5/24/19 15:33,498
5/24/19 15:33,499
5/24/19 15:33,500
5/24/19 15:33,502
5/24/19 15:33,502
5/24/19 15:33,502
5/24/19 15:33,505
5/24/19 15:33,504
5/24/19 15:33,506
5/24/19 15:33,503
5/24/19 15:33,505
5/24/19 15:33,505
5/24/19 15:33,505
5/24/19 15:33,504
5/24/19 15:33,505
5/24/19 15:33,506
5/24/19 15:33,504
5/24/19 15:33,505
5/24/19 15:33,502
5/24/19 15:33,501
5/24/19 15:33,503
5/24/19 15:33,502
5/24/19 15:33,503
5/24/19 15:33,504
5/24/19 15:33,503
5/24/19 15:33,504
5/24/19 15:33,503
5/24/19 15:33,503
5/24/19 15:33,503
5/24/19 15:33,504
5/24/19 15:33,503
5/24/19 15:33,509
5/24/19 15:33,516
5/24/19 15:33,507
5/24/19 15:33,507
5/24/19 15:33,502
5/24/19 15:33,502
5/24/19 15:33,499
5/24/19 15:33,497
5/24/19 15:33,497
5/24/19 15:33,498
5/24/19 15:33,500
5/24/19 15:33,502
5/24/19 15:33,500
5/24/19 15:33,501
5/24/19 15:33,502
5/24/19 15:33,503
5/24/19 15:33,504
5/24/19 15:33,506
5/24/19 15:33,505
5/24/19 15:33,504
5/24/19 15:33,505
5/24/19 15:33,505
5/24/19 15:33,506
5/24/19 15:33,504
5/24/19 15:33,506
5/24/19 15:33,503
5/24/19 15:33,504
5/24/19 15:33,505
5/24/19 15:33,504
5/24/19 15:33,505
5/24/19 15:33,504
5/24/19 15:33,503
5/24/19 15:33,503
5/24/19 15:33,503
5/24/19 15:33,501
5/24/19 15:33,502
5/24/19 15:33,502
5/24/19 15:33,503
5/24/19 15:33,505
5/24/19 15:33,504
5/24/19 15:33,502
5/24/19 15:33,510
5/24/19 15:33,510
5/24/19 15:33,505
5/24/19 15:33,505
5/24/19 15:33,503
5/24/19 15:33,503
5/24/19 15:33,498
5/24/19 15:33,497
5/24/19 15:33,499
5/24/19 15:33,499
5/24/19 15:33,500
5/24/19 15:33,499
5/24/19 15:33,500
5/24/19 15:33,503
5/24/19 15:33,503
5/24/19 15:33,502
5/24/19 15:33,502
5/24/19 15:33,505
5/24/19 15:33,504
5/24/19 15:33,506
5/24/19 15:33,505
5/24/19 15:33,505
5/24/19 15:33,506
5/24/19 15:33,504
5/24/19 15:33,504
5/24/19 15:33,506
5/24/19 15:33,505
5/24/19 15:33,504
5/24/19 15:33,501
5/24/19 15:33,504
5/24/19 15:33,502
5/24/19 15:33,503
5/24/19 15:33,504
5/24/19 15:33,503
5/24/19 15:33,502
5/24/19 15:33,505
5/24/19 15:33,504
5/24/19 15:33,504
5/24/19 15:33,505
5/24/19 15:33,501
5/24/19 15:33,503
5/24/19 15:33,512
5/24/19 15:33,508
5/24/19 15:33,506
5/24/19 15:33,503
5/24/19 15:33,504
5/24/19 15:33,502
5/24/19 15:33,498
5/24/19 15:33,495
5/24/19 15:33,495
5/24/19 15:33,497
5/24/19 15:33,497
5/24/19 15:33,501
5/24/19 15:33,503
5/24/19 15:33,503
5/24/19 15:33,505
5/24/19 15:33,503
5/24/19 15:33,505
5/24/19 15:33,506
5/24/19 15:33,504
5/24/19 15:33,504
5/24/19 15:33,504
5/24/19 15:33,504
5/24/19 15:33,504
5/24/19 15:33,505
5/24/19 15:33,505
5/24/19 15:33,504
5/24/19 15:33,504
5/24/19 15:33,504
5/24/19 15:33,502
5/24/19 15:33,503
5/24/19 15:33,501
5/24/19 15:33,503
5/24/19 15:33,501
5/24/19 15:33,503
5/24/19 15:33,503
5/24/19 15:33,503
5/24/19 15:33,503
5/24/19 15:33,504
5/24/19 15:33,502
5/24/19 15:33,505
5/24/19 15:33,503
5/24/19 15:33,511
5/24/19 15:33,509
5/24/19 15:33,507
5/24/19 15:33,506
5/24/19 15:33,505
5/24/19 15:33,501
5/24/19 15:33,499
5/24/19 15:33,495
5/24/19 15:33,498
5/24/19 15:33,500
5/24/19 15:33,499
5/24/19 15:33,499
5/24/19 15:33,500
5/24/19 15:33,504
5/24/19 15:33,503
5/24/19 15:33,505
5/24/19 15:33,504
5/24/19 15:33,506
5/24/19 15:33,506
5/24/19 15:33,506
5/24/19 15:33,503
5/24/19 15:33,504
5/24/19 15:33,504
5/24/19 15:33,503
5/24/19 15:33,504
5/24/19 15:33,505
5/24/19 15:33,503
5/24/19 15:33,505
5/24/19 15:33,504
5/24/19 15:33,505
5/24/19 15:33,505
5/24/19 15:33,502
5/24/19 15:33,503
5/24/19 15:33,503
5/24/19 15:33,501
5/24/19 15:33,502
5/24/19 15:33,503
5/24/19 15:33,502
5/24/19 15:33,503
5/24/19 15:33,504
5/24/19 15:33,506
5/24/19 15:33,516
5/24/19 15:33,507
5/24/19 15:33,507
5/24/19 15:33,504
5/24/19 15:33,504
5/24/19 15:33,501
5/24/19 15:33,497
5/24/19 15:33,497
5/24/19 15:33,496
5/24/19 15:33,498
5/24/19 15:33,500
5/24/19 15:33,500
5/24/19 15:33,500
5/24/19 15:33,503
5/24/19 15:33,504
5/24/19 15:33,505
5/24/19 15:33,504
5/24/19 15:33,505
5/24/19 15:33,504
5/24/19 15:33,506
5/24/19 15:33,505
5/24/19 15:33,503
5/24/19 15:33,506
5/24/19 15:33,505
5/24/19 15:33,505
5/24/19 15:33,506
5/24/19 15:33,505
5/24/19 15:33,502
5/24/19 15:33,503
5/24/19 15:33,503
5/24/19 15:33,504
5/24/19 15:33,503
5/24/19 15:33,503
5/24/19 15:33,502
5/24/19 15:33,504
5/24/19 15:33,503
5/24/19 15:33,502
5/24/19 15:33,504
5/24/19 15:33,503
5/24/19 15:33,503
5/24/19 15:33,504
5/24/19 15:33,513
5/24/19 15:33,506
5/24/19 15:33,504
5/24/19 15:33,506
5/24/19 15:33,503
5/24/19 15:33,502
5/24/19 15:33,498
5/24/19 15:33,495
5/24/19 15:33,498
5/24/19 15:33,498
5/24/19 15:33,499
5/24/19 15:33,502
5/24/19 15:33,501
5/24/19 15:33,503
5/24/19 15:33,502
5/24/19 15:33,504
5/24/19 15:33,504
5/24/19 15:33,504
5/24/19 15:33,505
5/24/19 15:33,505
5/24/19 15:33,505
5/24/19 15:33,505
5/24/19 15:33,504
5/24/19 15:33,505
5/24/19 15:33,503
5/24/19 15:33,504
5/24/19 15:33,503
5/24/19 15:33,504
5/24/19 15:33,503
5/24/19 15:33,504
5/24/19 15:33,502
5/24/19 15:33,504
5/24/19 15:33,502
5/24/19 15:33,504
5/24/19 15:33,501
5/24/19 15:33,503
5/24/19 15:33,501
5/24/19 15:33,503
5/24/19 15:33,504
5/24/19 15:33,503
5/24/19 15:33,502
5/24/19 15:33,509
5/24/19 15:33,508
5/24/19 15:33,506
5/24/19 15:33,504
5/24/19 15:33,505
5/24/19 15:33,501
5/24/19 15:33,496
5/24/19 15:33,499
5/24/19 15:33,496
5/24/19 15:33,500
5/24/19 15:33,501
5/24/19 15:33,499
5/24/19 15:33,503
5/24/19 15:33,502
5/24/19 15:33,502
5/24/19 15:33,504
5/24/19 15:33,504
5/24/19 15:33,505
5/24/19 15:33,505
5/24/19 15:33,505
5/24/19 15:33,504
5/24/19 15:33,504
5/24/19 15:33,505
5/24/19 15:33,504
5/24/19 15:33,504
5/24/19 15:33,504
5/24/19 15:33,503
5/24/19 15:33,504
5/24/19 15:33,503
5/24/19 15:33,504
5/24/19 15:33,502
5/24/19 15:33,502
5/24/19 15:33,504
5/24/19 15:33,503
5/24/19 15:33,502
5/24/19 15:33,503
5/24/19 15:33,502
5/24/19 15:33,504
5/24/19 15:33,503
5/24/19 15:33,503
5/24/19 15:33,502
5/24/19 15:33,514
5/24/19 15:33,509
5/24/19 15:33,506
5/24/19 15:33,506
5/24/19 15:33,504
5/24/19 15:33,499
5/24/19 15:33,497
5/24/19 15:33,496
5/24/19 15:33,497
5/24/19 15:33,497
5/24/19 15:33,500
5/24/19 15:33,501
5/24/19 15:33,500
5/24/19 15:33,502
5/24/19 15:33,505
5/24/19 15:33,505
5/24/19 15:33,506
5/24/19 15:33,504
5/24/19 15:33,505
5/24/19 15:33,505
5/24/19 15:33,504
5/24/19 15:33,505
5/24/19 15:33,504
5/24/19 15:33,505
5/24/19 15:33,504
5/24/19 15:33,505
5/24/19 15:33,503
5/24/19 15:33,505
5/24/19 15:33,502
5/24/19 15:33,505
5/24/19 15:33,502
5/24/19 15:33,502
5/24/19 15:33,502
5/24/19 15:33,503
5/24/19 15:33,503
5/24/19 15:33,504
5/24/19 15:33,501
5/24/19 15:33,502
5/24/19 15:33,503
5/24/19 15:33,501
5/24/19 15:33,504
5/24/19 15:33,516
5/24/19 15:33,508
5/24/19 15:33,506
5/24/19 15:33,506
5/24/19 15:33,502
5/24/19 15:33,499
5/24/19 15:33,495
5/24/19 15:33,497
5/24/19 15:33,499
5/24/19 15:33,499
5/24/19 15:33,500
5/24/19 15:33,499
5/24/19 15:33,502
5/24/19 15:33,500
5/24/19 15:33,502
5/24/19 15:33,503
5/24/19 15:33,505
5/24/19 15:33,505
5/24/19 15:33,504
5/24/19 15:33,503
5/24/19 15:33,503
5/24/19 15:33,506
5/24/19 15:33,506
5/24/19 15:33,505
5/24/19 15:33,505
5/24/19 15:33,505
5/24/19 15:33,504
5/24/19 15:33,505
5/24/19 15:33,505
5/24/19 15:33,503
5/24/19 15:33,504
5/24/19 15:33,501
5/24/19 15:33,503
5/24/19 15:33,502
5/24/19 15:33,504
5/24/19 15:33,502
5/24/19 15:33,501
5/24/19 15:33,503
5/24/19 15:33,502
5/24/19 15:33,504
5/24/19 15:33,503
5/24/19 15:33,510
5/24/19 15:33,509
5/24/19 15:33,507
5/24/19 15:33,505
5/24/19 15:33,503
5/24/19 15:33,499
5/24/19 15:33,498
5/24/19 15:33,498
5/24/19 15:33,497
5/24/19 15:33,498
5/24/19 15:33,498
5/24/19 15:33,499
5/24/19 15:33,500
5/24/19 15:33,501
5/24/19 15:33,504
5/24/19 15:33,503
5/24/19 15:33,506
5/24/19 15:33,504
5/24/19 15:33,506
5/24/19 15:33,504
5/24/19 15:33,504
5/24/19 15:33,505
5/24/19 15:33,503
5/24/19 15:33,507
5/24/19 15:33,504
5/24/19 15:33,503
5/24/19 15:33,505
5/24/19 15:33,505
5/24/19 15:33,503
5/24/19 15:33,502
5/24/19 15:33,502
5/24/19 15:33,503
5/24/19 15:33,505
5/24/19 15:33,503
5/24/19 15:33,503
5/24/19 15:33,502
5/24/19 15:33,505
5/24/19 15:33,502
5/24/19 15:33,502
5/24/19 15:33,502
5/24/19 15:33,503
5/24/19 15:33,513
5/24/19 15:33,507
5/24/19 15:33,506
5/24/19 15:33,504
5/24/19 15:33,504
5/24/19 15:33,499
5/24/19 15:33,497
5/24/19 15:33,498
5/24/19 15:33,496
5/24/19 15:33,499
5/24/19 15:33,500
5/24/19 15:33,501
5/24/19 15:33,502
5/24/19 15:33,502
5/24/19 15:33,504
5/24/19 15:33,506
5/24/19 15:33,503
5/24/19 15:33,506
5/24/19 15:33,504
5/24/19 15:33,504
5/24/19 15:33,505
5/24/19 15:33,505
5/24/19 15:33,503
5/24/19 15:33,505
5/24/19 15:33,505
5/24/19 15:33,505
5/24/19 15:33,503
5/24/19 15:33,503
5/24/19 15:33,505
5/24/19 15:33,503
5/24/19 15:33,503
5/24/19 15:33,502
5/24/19 15:33,503
5/24/19 15:33,504
5/24/19 15:33,503
5/24/19 15:33,503
5/24/19 15:33,505
5/24/19 15:33,502
5/24/19 15:33,503
5/24/19 15:33,501
5/24/19 15:33,502
5/24/19 15:33,510
5/24/19 15:33,514
5/24/19 15:33,508
5/24/19 15:33,506
5/24/19 15:33,505
5/24/19 15:33,501
5/24/19 15:33,497
5/24/19 15:33,495
5/24/19 15:33,496
5/24/19 15:33,497
5/24/19 15:33,499
5/24/19 15:33,500
5/24/19 15:33,502
5/24/19 15:33,500
5/24/19 15:33,504
5/24/19 15:33,505
5/24/19 15:33,505
5/24/19 15:33,504
5/24/19 15:33,507
5/24/19 15:33,504
5/24/19 15:33,505
5/24/19 15:33,505
5/24/19 15:33,505
5/24/19 15:33,504
5/24/19 15:33,506
5/24/19 15:33,503
5/24/19 15:33,505
5/24/19 15:33,505
5/24/19 15:33,506
5/24/19 15:33,503
5/24/19 15:33,505
5/24/19 15:33,503
5/24/19 15:33,502
5/24/19 15:33,502
5/24/19 15:33,504
5/24/19 15:33,502
5/24/19 15:33,502
5/24/19 15:33,503
5/24/19 15:33,502
5/24/19 15:33,504
5/24/19 15:33,503
5/24/19 15:33,511
5/24/19 15:33,507
5/24/19 15:33,506
5/24/19 15:33,505
5/24/19 15:33,503
5/24/19 15:33,503
5/24/19 15:33,498
5/24/19 15:33,496
5/24/19 15:33,496
5/24/19 15:33,499
5/24/19 15:33,498
5/24/19 15:33,500
5/24/19 15:33,502
5/24/19 15:33,504
5/24/19 15:33,503
5/24/19 15:33,503
5/24/19 15:33,503
5/24/19 15:33,505
5/24/19 15:33,505
5/24/19 15:33,506
5/24/19 15:42,501
5/24/19 15:42,501
5/24/19 15:42,503
5/24/19 15:42,503
5/24/19 15:42,504
5/24/19 15:42,504
5/24/19 15:42,504
5/24/19 15:42,506
5/24/19 15:42,506
5/24/19 15:42,506
5/24/19 15:42,506
5/24/19 15:42,505
5/24/19 15:42,506
5/24/19 15:42,504
5/24/19 15:42,503
5/24/19 15:42,504
5/24/19 15:42,503
5/24/19 15:42,503
5/24/19 15:42,503
5/24/19 15:42,503
5/24/19 15:42,503
5/24/19 15:42,502
5/24/19 15:42,502
5/24/19 15:42,503
5/24/19 15:42,503
5/24/19 15:42,503
5/24/19 15:42,502
5/24/19 15:42,503
5/24/19 15:42,503
5/24/19 15:42,511
5/24/19 15:42,507
5/24/19 15:42,505
5/24/19 15:42,505
5/24/19 15:42,503
5/24/19 15:42,501
5/24/19 15:42,498
5/24/19 15:42,495
5/24/19 15:42,495
5/24/19 15:42,497
5/24/19 15:42,498
5/24/19 15:42,500
5/24/19 15:42,502
5/24/19 15:42,503
5/24/19 15:42,503
5/24/19 15:42,504
5/24/19 15:42,504
5/24/19 15:42,505
5/24/19 15:42,505
5/24/19 15:42,505
5/24/19 15:42,505
5/24/19 15:42,506
5/24/19 15:42,505
5/24/19 15:42,507
5/24/19 15:42,504
5/24/19 15:42,504
5/24/19 15:42,506
5/24/19 15:42,505
5/24/19 15:42,504
5/24/19 15:42,503
5/24/19 15:42,504
5/24/19 15:42,501
5/24/19 15:42,503
5/24/19 15:42,503
5/24/19 15:42,503
5/24/19 15:42,504
5/24/19 15:42,503
5/24/19 15:42,503
5/24/19 15:42,502
5/24/19 15:42,503
5/24/19 15:42,502
5/24/19 15:42,509
5/24/19 15:42,509
5/24/19 15:42,505
5/24/19 15:42,506
5/24/19 15:42,504
5/24/19 15:42,501
5/24/19 15:42,499
5/24/19 15:42,497
5/24/19 15:42,495
5/24/19 15:42,497
5/24/19 15:42,498
5/24/19 15:42,500
5/24/19 15:42,500
5/24/19 15:42,503
5/24/19 15:42,505
5/24/19 15:42,505
5/24/19 15:42,505
5/24/19 15:42,505
5/24/19 15:42,504
5/24/19 15:42,505
5/24/19 15:42,503
5/24/19 15:42,505
5/24/19 15:42,506
5/24/19 15:42,505
5/24/19 15:42,502
5/24/19 15:42,503
5/24/19 15:42,504
5/24/19 15:42,505
5/24/19 15:42,505
5/24/19 15:42,505
5/24/19 15:42,504
5/24/19 15:42,503
5/24/19 15:42,503
5/24/19 15:42,503
5/24/19 15:42,503
5/24/19 15:42,502
5/24/19 15:42,504
5/24/19 15:42,503
5/24/19 15:42,504
5/24/19 15:42,504
5/24/19 15:42,503
5/24/19 15:42,508
5/24/19 15:42,509
5/24/19 15:42,506
5/24/19 15:42,503
5/24/19 15:42,505
5/24/19 15:42,501
5/24/19 15:42,495
5/24/19 15:42,496
5/24/19 15:42,496
5/24/19 15:42,497
5/24/19 15:42,500
5/24/19 15:42,500
5/24/19 15:42,501
5/24/19 15:42,503
5/24/19 15:42,504
5/24/19 15:42,504
5/24/19 15:42,503
5/24/19 15:42,505
5/24/19 15:42,507
5/24/19 15:42,503
5/24/19 15:42,507
5/24/19 15:42,506
5/24/19 15:42,507
5/24/19 15:42,505
5/24/19 15:42,503
5/24/19 15:42,505
5/24/19 15:42,504
5/24/19 15:42,504
5/24/19 15:42,503
5/24/19 15:42,502
5/24/19 15:42,505
5/24/19 15:42,503
5/24/19 15:42,505
5/24/19 15:42,503
5/24/19 15:42,503
5/24/19 15:42,503
5/24/19 15:42,504
5/24/19 15:42,503
5/24/19 15:42,502
5/24/19 15:42,502
5/24/19 15:42,503
5/24/19 15:42,502
5/24/19 15:42,512
5/24/19 15:42,507
5/24/19 15:42,506
5/24/19 15:42,506
5/24/19 15:42,504
5/24/19 15:42,501
5/24/19 15:42,496
5/24/19 15:42,497
5/24/19 15:42,495
5/24/19 15:42,496
5/24/19 15:42,500
5/24/19 15:42,499
5/24/19 15:42,502
5/24/19 15:42,503
5/24/19 15:42,503
5/24/19 15:42,503
5/24/19 15:42,506
5/24/19 15:42,504
5/24/19 15:42,506
5/24/19 15:42,505
5/24/19 15:42,505
5/24/19 15:42,506
5/24/19 15:42,505
5/24/19 15:42,503
5/24/19 15:42,504
5/24/19 15:42,503
5/24/19 15:42,504
5/24/19 15:42,506
5/24/19 15:42,503
5/24/19 15:42,502
5/24/19 15:42,504
5/24/19 15:42,503
5/24/19 15:42,501
5/24/19 15:42,503
5/24/19 15:42,502
5/24/19 15:42,503
5/24/19 15:42,504
5/24/19 15:42,503
5/24/19 15:42,504
5/24/19 15:42,503
5/24/19 15:42,502
5/24/19 15:42,508
5/24/19 15:42,511
5/24/19 15:42,508
5/24/19 15:42,506
5/24/19 15:42,503
5/24/19 15:42,501
5/24/19 15:42,500
5/24/19 15:42,498
5/24/19 15:42,498
5/24/19 15:42,498
5/24/19 15:42,498
5/24/19 15:42,500
5/24/19 15:42,499
5/24/19 15:42,500
5/24/19 15:42,502
5/24/19 15:42,505
5/24/19 15:42,505
5/24/19 15:42,506
5/24/19 15:42,505
5/24/19 15:42,507
5/24/19 15:42,507
5/24/19 15:42,505
5/24/19 15:42,505
5/24/19 15:42,506
5/24/19 15:42,505
5/24/19 15:42,505
5/24/19 15:42,504
5/24/19 15:42,505
5/24/19 15:42,502
5/24/19 15:42,503
5/24/19 15:42,505
5/24/19 15:42,503
5/24/19 15:42,503
5/24/19 15:42,502
5/24/19 15:42,503
5/24/19 15:42,503
5/24/19 15:42,502
5/24/19 15:42,503
5/24/19 15:42,502
5/24/19 15:42,505
5/24/19 15:42,503
5/24/19 15:42,502
5/24/19 15:42,515
5/24/19 15:42,509
5/24/19 15:42,507
5/24/19 15:42,504
5/24/19 15:42,504
5/24/19 15:42,500
5/24/19 15:42,495
5/24/19 15:42,494
5/24/19 15:42,495
5/24/19 15:42,498
5/24/19 15:42,501
5/24/19 15:42,500
5/24/19 15:42,500
5/24/19 15:42,503
5/24/19 15:42,504
5/24/19 15:42,504
5/24/19 15:42,505
5/24/19 15:42,505
5/24/19 15:42,504
5/24/19 15:42,506
5/24/19 15:42,506
5/24/19 15:42,505
5/24/19 15:42,504
5/24/19 15:42,505
5/24/19 15:42,506
5/24/19 15:42,505
5/24/19 15:42,505
5/24/19 15:42,504
5/24/19 15:42,504
5/24/19 15:42,504
5/24/19 15:42,504
5/24/19 15:42,502
5/24/19 15:42,501
5/24/19 15:42,504
5/24/19 15:42,503
5/24/19 15:42,503
5/24/19 15:42,503
5/24/19 15:42,505
5/24/19 15:42,503
5/24/19 15:42,504
5/24/19 15:42,502
5/24/19 15:42,509
5/24/19 15:42,510
5/24/19 15:42,506
5/24/19 15:42,506
5/24/19 15:42,505
5/24/19 15:42,502
5/24/19 15:42,497
5/24/19 15:42,496
5/24/19 15:42,497
5/24/19 15:42,497
5/24/19 15:42,499
5/24/19 15:42,500
5/24/19 15:42,501
5/24/19 15:42,502
5/24/19 15:42,505
5/24/19 15:42,503
5/24/19 15:42,505
5/24/19 15:42,504
5/24/19 15:42,506
5/24/19 15:42,506
5/24/19 15:42,504
5/24/19 15:42,504
5/24/19 15:42,504
5/24/19 15:42,504
5/24/19 15:42,505
5/24/19 15:42,507
5/24/19 15:42,503
5/24/19 15:42,502
5/24/19 15:42,504
5/24/19 15:42,505
5/24/19 15:42,504
5/24/19 15:42,503
5/24/19 15:42,503
5/24/19 15:42,503
5/24/19 15:42,503
5/24/19 15:42,502
5/24/19 15:42,503
5/24/19 15:42,502
5/24/19 15:42,501
5/24/19 15:42,503
5/24/19 15:42,503
5/24/19 15:42,509
5/24/19 15:42,511
5/24/19 15:42,507
5/24/19 15:42,503
5/24/19 15:42,503
5/24/19 15:42,501
5/24/19 15:42,498
5/24/19 15:42,496
5/24/19 15:42,498
5/24/19 15:42,498
5/24/19 15:42,499
5/24/19 15:42,501
5/24/19 15:42,500
5/24/19 15:42,503
5/24/19 15:42,504
5/24/19 15:42,503
5/24/19 15:42,504
5/24/19 15:42,506
5/24/19 15:42,504
5/24/19 15:42,506
5/24/19 15:42,508
5/24/19 15:42,505
5/24/19 15:42,506
5/24/19 15:42,505
5/24/19 15:42,503
5/24/19 15:42,505
5/24/19 15:42,502
5/24/19 15:42,504
5/24/19 15:42,504
5/24/19 15:42,503
5/24/19 15:42,503
5/24/19 15:42,503
5/24/19 15:42,504
5/24/19 15:42,505
5/24/19 15:42,504
5/24/19 15:42,505
5/24/19 15:42,503
5/24/19 15:42,503
5/24/19 15:42,502
5/24/19 15:42,503
5/24/19 15:42,502
5/24/19 15:42,510
5/24/19 15:42,510
5/24/19 15:42,506
5/24/19 15:42,505
5/24/19 15:42,505
5/24/19 15:42,501
5/24/19 15:42,497
5/24/19 15:42,494
5/24/19 15:42,496
5/24/19 15:42,499
5/24/19 15:42,497
5/24/19 15:42,499
5/24/19 15:42,501
5/24/19 15:42,501
5/24/19 15:42,503
5/24/19 15:42,503
5/24/19 15:42,505
5/24/19 15:42,505
5/24/19 15:42,506
5/24/19 15:42,506
5/24/19 15:42,505
5/24/19 15:42,506
5/24/19 15:42,506
5/24/19 15:42,503
5/24/19 15:42,503
5/24/19 15:42,504
5/24/19 15:42,506
5/24/19 15:42,504
5/24/19 15:42,504
5/24/19 15:42,502
5/24/19 15:42,502
5/24/19 15:42,502
5/24/19 15:42,503
5/24/19 15:42,503
5/24/19 15:42,504
5/24/19 15:42,503
5/24/19 15:42,504
5/24/19 15:42,502
5/24/19 15:42,502
5/24/19 15:42,504
5/24/19 15:42,503
5/24/19 15:42,507
5/24/19 15:42,516
5/24/19 15:42,509
5/24/19 15:42,505
5/24/19 15:42,504
5/24/19 15:42,502
5/24/19 15:42,499
5/24/19 15:42,494
5/24/19 15:42,498
5/24/19 15:42,498
5/24/19 15:42,498
5/24/19 15:42,499
5/24/19 15:42,500
5/24/19 15:42,502
5/24/19 15:42,503
5/24/19 15:42,502
5/24/19 15:42,503
5/24/19 15:42,505
5/24/19 15:42,505
5/24/19 15:42,505
5/24/19 15:42,506
5/24/19 15:42,506
5/24/19 15:42,507
5/24/19 15:42,505
5/24/19 15:42,503
5/24/19 15:42,505
5/24/19 15:42,505
5/24/19 15:42,505
5/24/19 15:42,505
5/24/19 15:42,503
5/24/19 15:42,504
5/24/19 15:42,504
5/24/19 15:42,501
5/24/19 15:42,503
5/24/19 15:42,504
5/24/19 15:42,502
5/24/19 15:42,503
5/24/19 15:42,503
5/24/19 15:42,502
5/24/19 15:42,502
5/24/19 15:42,504
5/24/19 15:42,510
5/24/19 15:42,513
5/24/19 15:42,505
5/24/19 15:42,506
5/24/19 15:42,504
5/24/19 15:42,503
5/24/19 15:42,499
5/24/19 15:42,496
5/24/19 15:42,495
5/24/19 15:42,497
5/24/19 15:42,498
5/24/19 15:42,500
5/24/19 15:42,501
5/24/19 15:42,503
5/24/19 15:42,504
5/24/19 15:42,505
5/24/19 15:42,504
5/24/19 15:42,505
5/24/19 15:42,506
5/24/19 15:42,504
5/24/19 15:42,506
5/24/19 15:42,505
5/24/19 15:42,506
5/24/19 15:42,504
5/24/19 15:42,506
5/24/19 15:42,503
5/24/19 15:42,504
5/24/19 15:42,505
5/24/19 15:42,504
5/24/19 15:42,502
5/24/19 15:42,503
5/24/19 15:42,503
5/24/19 15:42,502
5/24/19 15:42,504
5/24/19 15:42,505
5/24/19 15:42,503
5/24/19 15:42,503
5/24/19 15:42,503
5/24/19 15:42,503
5/24/19 15:42,502
5/24/19 15:42,503
5/24/19 15:42,506
5/24/19 15:42,516
5/24/19 15:42,508
5/24/19 15:42,506
5/24/19 15:42,503
5/24/19 15:42,503
5/24/19 15:42,498
5/24/19 15:42,493
5/24/19 15:42,498
5/24/19 15:42,495
5/24/19 15:42,498
5/24/19 15:42,500
5/24/19 15:42,501
5/24/19 15:42,503
5/24/19 15:42,504
5/24/19 15:42,504
5/24/19 15:42,506
5/24/19 15:42,505
5/24/19 15:42,504
5/24/19 15:42,504
5/24/19 15:42,504
5/24/19 15:42,506
5/24/19 15:42,504
5/24/19 15:42,506
5/24/19 15:42,504
5/24/19 15:42,504
5/24/19 15:42,505
5/24/19 15:42,505
5/24/19 15:42,505
5/24/19 15:42,505
5/24/19 15:42,503
5/24/19 15:42,503
5/24/19 15:42,504
5/24/19 15:42,503
5/24/19 15:42,503
5/24/19 15:42,502
5/24/19 15:42,504
5/24/19 15:42,501
5/24/19 15:42,502
5/24/19 15:42,502
5/24/19 15:42,503
5/24/19 15:42,503
5/24/19 15:42,510
5/24/19 15:42,508
5/24/19 15:42,507
5/24/19 15:42,502
5/24/19 15:42,504
5/24/19 15:42,502
5/24/19 15:42,496
5/24/19 15:42,495
5/24/19 15:42,495
5/24/19 15:42,498
5/24/19 15:42,500
5/24/19 15:42,501
5/24/19 15:42,502
5/24/19 15:42,502
5/24/19 15:42,504
5/24/19 15:42,503
5/24/19 15:42,505
5/24/19 15:42,505
5/24/19 15:42,503
5/24/19 15:42,505
5/24/19 15:42,505
5/24/19 15:42,505
5/24/19 15:42,504
5/24/19 15:42,506
5/24/19 15:42,505
5/24/19 15:42,505
5/24/19 15:42,503
5/24/19 15:42,503
5/24/19 15:42,504
5/24/19 15:42,502
5/24/19 15:42,502
5/24/19 15:42,503
5/24/19 15:42,502
5/24/19 15:42,504
5/24/19 15:42,504
5/24/19 15:42,505
5/24/19 15:42,505
5/24/19 15:42,503
5/24/19 15:42,505
5/24/19 15:42,503
5/24/19 15:42,504
5/24/19 15:42,511
5/24/19 15:42,511
5/24/19 15:42,507
5/24/19 15:42,506
5/24/19 15:42,502
5/24/19 15:42,502
5/24/19 15:42,499
5/24/19 15:42,497
5/24/19 15:42,498
5/24/19 15:42,495
5/24/19 15:42,497
5/24/19 15:42,499
5/24/19 15:42,501
5/24/19 15:42,501
5/24/19 15:42,502
5/24/19 15:42,503
5/24/19 15:42,503
5/24/19 15:42,505
5/24/19 15:42,505
5/24/19 15:42,506
5/24/19 15:42,506
5/24/19 15:42,505
5/24/19 15:42,504
5/24/19 15:42,504
5/24/19 15:42,505
5/24/19 15:42,504
5/24/19 15:42,503
5/24/19 15:42,505
5/24/19 15:42,505
5/24/19 15:42,502
5/24/19 15:42,505
5/24/19 15:42,502
5/24/19 15:42,502
5/24/19 15:42,503
5/24/19 15:42,503
5/24/19 15:51,505
5/24/19 15:51,504
5/24/19 15:51,505
5/24/19 15:51,505
5/24/19 15:51,504
5/24/19 15:51,505
5/24/19 15:51,504
5/24/19 15:51,504
5/24/19 15:51,506
5/24/19 15:51,506
5/24/19 15:51,504
5/24/19 15:51,504
5/24/19 15:51,504
5/24/19 15:51,501
5/24/19 15:51,503
5/24/19 15:51,503
5/24/19 15:51,503
5/24/19 15:51,502
5/24/19 15:51,501
5/24/19 15:51,503
5/24/19 15:51,502
5/24/19 15:51,503
5/24/19 15:51,503
5/24/19 15:51,503
5/24/19 15:51,504
5/24/19 15:51,503
5/24/19 15:51,516
5/24/19 15:51,507
5/24/19 15:51,505
5/24/19 15:51,504
5/24/19 15:51,501
5/24/19 15:51,500
5/24/19 15:51,498
5/24/19 15:51,498
5/24/19 15:51,497
5/24/19 15:51,497
5/24/19 15:51,498
5/24/19 15:51,499
5/24/19 15:51,502
5/24/19 15:51,504
5/24/19 15:51,504
5/24/19 15:51,505
5/24/19 15:51,503
5/24/19 15:51,505
5/24/19 15:51,505
5/24/19 15:51,505
5/24/19 15:51,505
5/24/19 15:51,505
5/24/19 15:51,505
5/24/19 15:51,506
5/24/19 15:51,504
5/24/19 15:51,505
5/24/19 15:51,502
5/24/19 15:51,505
5/24/19 15:51,505
5/24/19 15:51,503
5/24/19 15:51,503
5/24/19 15:51,503
5/24/19 15:51,501
5/24/19 15:51,501
5/24/19 15:51,502
5/24/19 15:51,503
5/24/19 15:51,503
5/24/19 15:51,503
5/24/19 15:51,501
5/24/19 15:51,504
5/24/19 15:51,506
5/24/19 15:51,518
5/24/19 15:51,506
5/24/19 15:51,507
5/24/19 15:51,504
5/24/19 15:51,502
5/24/19 15:51,499
5/24/19 15:51,495
5/24/19 15:51,496
5/24/19 15:51,498
5/24/19 15:51,499
5/24/19 15:51,499
5/24/19 15:51,501
5/24/19 15:51,503
5/24/19 15:51,501
5/24/19 15:51,506
5/24/19 15:51,504
5/24/19 15:51,504
5/24/19 15:51,505
5/24/19 15:51,506
5/24/19 15:51,507
5/24/19 15:51,505
5/24/19 15:51,506
5/24/19 15:51,506
5/24/19 15:51,504
5/24/19 15:51,505
5/24/19 15:51,505
5/24/19 15:51,504
5/24/19 15:51,503
5/24/19 15:51,504
5/24/19 15:51,502
5/24/19 15:51,504
5/24/19 15:51,502
5/24/19 15:51,505
5/24/19 15:51,503
5/24/19 15:51,502
5/24/19 15:51,502
5/24/19 15:51,504
5/24/19 15:51,503
5/24/19 15:51,502
5/24/19 15:51,503
5/24/19 15:51,505
5/24/19 15:51,518
5/24/19 15:51,506
5/24/19 15:51,505
5/24/19 15:51,505
5/24/19 15:51,504
5/24/19 15:51,501
5/24/19 15:51,496
5/24/19 15:51,496
5/24/19 15:51,497
5/24/19 15:51,500
5/24/19 15:51,498
5/24/19 15:51,500
5/24/19 15:51,501
5/24/19 15:51,502
5/24/19 15:51,505
5/24/19 15:51,505
5/24/19 15:51,506
5/24/19 15:51,506
5/24/19 15:51,505
5/24/19 15:51,505
5/24/19 15:51,506
5/24/19 15:51,504
5/24/19 15:51,504
5/24/19 15:51,503
5/24/19 15:51,505
5/24/19 15:51,505
5/24/19 15:51,505
5/24/19 15:51,503
5/24/19 15:51,503
5/24/19 15:51,504
5/24/19 15:51,502
5/24/19 15:51,502
5/24/19 15:51,502
5/24/19 15:51,502
5/24/19 15:51,504
5/24/19 15:51,503
5/24/19 15:51,505
5/24/19 15:51,503
5/24/19 15:51,504
5/24/19 15:51,503
5/24/19 15:51,505
5/24/19 15:51,514
5/24/19 15:51,508
5/24/19 15:51,507
5/24/19 15:51,501
5/24/19 15:51,502
5/24/19 15:51,500
5/24/19 15:51,495
5/24/19 15:51,496
5/24/19 15:51,495
5/24/19 15:51,499
5/24/19 15:51,500
5/24/19 15:51,500
5/24/19 15:51,502
5/24/19 15:51,504
5/24/19 15:51,504
5/24/19 15:51,506
5/24/19 15:51,505
5/24/19 15:51,506
5/24/19 15:51,506
5/24/19 15:51,505
5/24/19 15:51,504
5/24/19 15:51,507
5/24/19 15:51,506
5/24/19 15:51,505
5/24/19 15:51,505
5/24/19 15:51,505
5/24/19 15:51,504
5/24/19 15:51,503
5/24/19 15:51,504
5/24/19 15:51,502
5/24/19 15:51,502
5/24/19 15:51,503
5/24/19 15:51,503
5/24/19 15:51,502
5/24/19 15:51,506
5/24/19 15:51,503
5/24/19 15:51,502
5/24/19 15:51,502
5/24/19 15:51,502
5/24/19 15:51,503
5/24/19 15:51,504
5/24/19 15:51,506
5/24/19 15:51,518
5/24/19 15:51,508
5/24/19 15:51,506
5/24/19 15:51,503
5/24/19 15:51,500
5/24/19 15:51,498
5/24/19 15:51,496
5/24/19 15:51,497
5/24/19 15:51,495
5/24/19 15:51,498
5/24/19 15:51,499
5/24/19 15:51,502
5/24/19 15:51,502
5/24/19 15:51,503
5/24/19 15:51,504
5/24/19 15:51,504
5/24/19 15:51,503
5/24/19 15:51,505
5/24/19 15:51,505
5/24/19 15:51,505
5/24/19 15:51,506
5/24/19 15:51,506
5/24/19 15:51,505
5/24/19 15:51,506
5/24/19 15:51,504
5/24/19 15:51,503
5/24/19 15:51,504
5/24/19 15:51,503
5/24/19 15:51,503
5/24/19 15:51,503
5/24/19 15:51,502
5/24/19 15:51,503
5/24/19 15:51,503
5/24/19 15:51,502
5/24/19 15:51,503
5/24/19 15:51,505
5/24/19 15:51,504
5/24/19 15:51,502
5/24/19 15:51,504
5/24/19 15:51,502
5/24/19 15:51,509
5/24/19 15:51,512
5/24/19 15:51,507
5/24/19 15:51,505
5/24/19 15:51,503
5/24/19 15:51,502
5/24/19 15:51,499
5/24/19 15:51,496
5/24/19 15:51,497
5/24/19 15:51,496
5/24/19 15:51,497
5/24/19 15:51,501
5/24/19 15:51,501
5/24/19 15:51,501
5/24/19 15:51,503
5/24/19 15:51,503
5/24/19 15:51,504
5/24/19 15:51,505
5/24/19 15:51,506
5/24/19 15:51,505
5/24/19 15:51,505
5/24/19 15:51,505
5/24/19 15:51,506
5/24/19 15:51,504
5/24/19 15:51,504
5/24/19 15:51,506
5/24/19 15:51,504
5/24/19 15:51,503
5/24/19 15:51,506
5/24/19 15:51,504
5/24/19 15:51,503
5/24/19 15:51,502
5/24/19 15:51,505
5/24/19 15:51,502
5/24/19 15:51,502
5/24/19 15:51,502
5/24/19 15:51,503
5/24/19 15:51,505
5/24/19 15:51,503
5/24/19 15:51,504
5/24/19 15:51,503
5/24/19 15:51,511
5/24/19 15:51,514
5/24/19 15:51,508
5/24/19 15:51,505
5/24/19 15:51,503
5/24/19 15:51,503
5/24/19 15:51,497
5/24/19 15:51,495
5/24/19 15:51,496
5/24/19 15:51,496
5/24/19 15:51,501
5/24/19 15:51,502
5/24/19 15:51,499
5/24/19 15:51,503
5/24/19 15:51,504
5/24/19 15:51,503
5/24/19 15:51,503
5/24/19 15:51,504
5/24/19 15:51,505
5/24/19 15:51,506
5/24/19 15:51,507
5/24/19 15:51,505
5/24/19 15:51,505
5/24/19 15:51,505
5/24/19 15:51,505
5/24/19 15:51,505
5/24/19 15:51,506
5/24/19 15:51,505
5/24/19 15:51,504
5/24/19 15:51,500
5/24/19 15:51,502
5/24/19 15:51,503
5/24/19 15:51,504
5/24/19 15:51,503
5/24/19 15:51,504
5/24/19 15:51,501
5/24/19 15:51,503
5/24/19 15:51,503
5/24/19 15:51,503
5/24/19 15:51,503
5/24/19 15:51,502
5/24/19 15:51,507
5/24/19 15:51,515
5/24/19 15:51,507
5/24/19 15:51,505
5/24/19 15:51,505
5/24/19 15:51,503
5/24/19 15:51,498
5/24/19 15:51,498
5/24/19 15:51,495
5/24/19 15:51,495
5/24/19 15:51,499
5/24/19 15:51,500
5/24/19 15:51,502
5/24/19 15:51,501
5/24/19 15:51,502
5/24/19 15:51,505
5/24/19 15:51,503
5/24/19 15:51,504
5/24/19 15:51,506
5/24/19 15:51,504
5/24/19 15:51,505
5/24/19 15:51,504
5/24/19 15:51,505
5/24/19 15:51,504
5/24/19 15:51,504
5/24/19 15:51,506
5/24/19 15:51,502
5/24/19 15:51,503
5/24/19 15:51,505
5/24/19 15:51,503
5/24/19 15:51,504
5/24/19 15:51,502
5/24/19 15:51,503
5/24/19 15:51,501
5/24/19 15:51,503
5/24/19 15:51,504
5/24/19 15:51,501
5/24/19 15:51,505
5/24/19 15:51,504
5/24/19 15:51,504
5/24/19 15:51,504
5/24/19 15:51,508
5/24/19 15:51,513
5/24/19 15:51,508
5/24/19 15:51,505
5/24/19 15:51,503
5/24/19 15:51,503
5/24/19 15:51,499
5/24/19 15:51,498
5/24/19 15:51,496
5/24/19 15:51,495
5/24/19 15:51,496
5/24/19 15:51,501
5/24/19 15:51,501
5/24/19 15:51,502
5/24/19 15:51,503
5/24/19 15:51,503
5/24/19 15:51,506
5/24/19 15:51,505
5/24/19 15:51,505
5/24/19 15:51,505
5/24/19 15:51,505
5/24/19 15:51,504
5/24/19 15:51,504
5/24/19 15:51,505
5/24/19 15:51,504
5/24/19 15:51,504
5/24/19 15:51,505
5/24/19 15:51,504
5/24/19 15:51,503
5/24/19 15:51,504
5/24/19 15:51,504
5/24/19 15:51,505
5/24/19 15:51,503
5/24/19 15:51,501
5/24/19 15:51,503
5/24/19 15:51,503
5/24/19 15:51,504
5/24/19 15:51,501
5/24/19 15:51,501
5/24/19 15:51,504
5/24/19 15:51,504
5/24/19 15:51,508
5/24/19 15:51,517
5/24/19 15:51,507
5/24/19 15:51,504
5/24/19 15:51,503
5/24/19 15:51,503
5/24/19 15:51,501
5/24/19 15:51,496
5/24/19 15:51,496
5/24/19 15:51,498
5/24/19 15:51,499
5/24/19 15:51,500
5/24/19 15:51,501
5/24/19 15:51,502
5/24/19 15:51,503
5/24/19 15:51,505
5/24/19 15:51,502
5/24/19 15:51,504
5/24/19 15:51,506
5/24/19 15:51,505
5/24/19 15:51,505
5/24/19 15:51,505
5/24/19 15:51,503
5/24/19 15:51,505
5/24/19 15:51,505
5/24/19 15:51,504
5/24/19 15:51,505
5/24/19 15:51,503
5/24/19 15:51,503
5/24/19 15:51,505
5/24/19 15:51,504
5/24/19 15:51,503
5/24/19 15:51,502
5/24/19 15:51,503
5/24/19 15:51,503
5/24/19 15:51,505
5/24/19 15:51,503
5/24/19 15:51,502
5/24/19 15:51,505
5/24/19 15:51,503
5/24/19 15:51,504
5/24/19 15:51,503
5/24/19 15:51,518
5/24/19 15:51,508
5/24/19 15:51,506
5/24/19 15:51,503
5/24/19 15:51,502
5/24/19 15:51,501
5/24/19 15:51,498
5/24/19 15:51,497
5/24/19 15:51,498
5/24/19 15:51,497
5/24/19 15:51,499
5/24/19 15:51,500
5/24/19 15:51,502
5/24/19 15:51,502
5/24/19 15:51,501
5/24/19 15:51,504
5/24/19 15:51,504
5/24/19 15:51,507
5/24/19 15:51,504
5/24/19 15:51,504
5/24/19 15:51,506
5/24/19 15:51,505
5/24/19 15:51,504
5/24/19 15:51,505
5/24/19 15:51,505
5/24/19 15:51,504
5/24/19 15:51,502
5/24/19 15:51,504
5/24/19 15:51,504
5/24/19 15:51,502
5/24/19 15:51,502
5/24/19 15:51,504
5/24/19 15:51,502
5/24/19 15:51,503
5/24/19 15:51,504
5/24/19 15:51,503
5/24/19 15:51,504
5/24/19 15:51,503
5/24/19 15:51,504
5/24/19 15:51,505
5/24/19 15:51,503
5/24/19 15:51,513
5/24/19 15:51,508
5/24/19 15:51,506
5/24/19 15:51,505
5/24/19 15:51,502
5/24/19 15:51,501
5/24/19 15:51,497
5/24/19 15:51,498
5/24/19 15:51,496
5/24/19 15:51,498
5/24/19 15:51,500
5/24/19 15:51,500
5/24/19 15:51,502
5/24/19 15:51,502
5/24/19 15:51,503
5/24/19 15:51,503
5/24/19 15:51,505
5/24/19 15:51,505
5/24/19 15:51,504
5/24/19 15:51,506
5/24/19 15:51,506
5/24/19 15:51,505
5/24/19 15:51,505
5/24/19 15:51,505
5/24/19 15:51,504
5/24/19 15:51,504
5/24/19 15:51,504
5/24/19 15:51,504
5/24/19 15:51,505
5/24/19 15:51,502
5/24/19 15:51,502
5/24/19 15:51,504
5/24/19 15:51,501
5/24/19 15:51,502
5/24/19 15:51,502
5/24/19 15:51,501
5/24/19 15:51,500
5/24/19 15:51,502
5/24/19 15:51,504
5/24/19 15:51,502
5/24/19 15:51,509
5/24/19 15:51,515
5/24/19 15:51,507
5/24/19 15:51,505
5/24/19 15:51,504
5/24/19 15:51,501
5/24/19 15:51,498
5/24/19 15:51,498
5/24/19 15:51,495
5/24/19 15:51,497
5/24/19 15:51,498
5/24/19 15:51,500
5/24/19 15:51,500
5/24/19 15:51,501
5/24/19 15:51,504
5/24/19 15:51,504
5/24/19 15:51,505
5/24/19 15:51,504
5/24/19 15:51,504
5/24/19 15:51,506
5/24/19 15:51,506
5/24/19 15:51,505
5/24/19 15:51,506
5/24/19 15:51,505
5/24/19 15:51,504
5/24/19 15:51,507
5/24/19 15:51,505
5/24/19 15:51,505
5/24/19 15:51,503
5/24/19 15:51,504
5/24/19 15:51,503
5/24/19 15:51,504
5/24/19 15:51,504
5/24/19 15:51,501
5/24/19 15:51,504
5/24/19 15:51,503
5/24/19 15:51,504
5/24/19 15:51,503
5/24/19 15:51,502
5/24/19 15:51,504
5/24/19 15:51,504
5/24/19 15:51,507
5/24/19 15:51,515
5/24/19 15:51,506
5/24/19 15:51,506
5/24/19 15:51,502
5/24/19 15:51,501
5/24/19 15:51,497
5/24/19 15:51,496
5/24/19 15:51,498
5/24/19 15:51,496
5/24/19 15:51,499
5/24/19 15:51,499
5/24/19 15:51,501
5/24/19 15:51,502
5/24/19 15:51,504
5/24/19 15:51,503
5/24/19 15:51,504
5/24/19 15:51,504
5/24/19 15:51,503
5/24/19 15:51,504
5/24/19 15:51,504
5/24/19 15:51,505
5/24/19 15:51,505
5/24/19 15:51,507
5/24/19 15:51,505
5/24/19 15:51,505
5/24/19 15:51,505
5/24/19 15:51,503
5/24/19 15:51,504
5/24/19 15:51,502
5/24/19 15:51,503
5/24/19 15:51,503
5/24/19 15:51,502
5/24/19 15:51,502
5/24/19 15:51,503
5/24/19 15:51,504
5/24/19 15:51,502
5/24/19 15:51,502
5/24/19 15:51,503
5/24/19 15:51,503
5/24/19 15:51,505
5/24/19 16:00,504
5/24/19 16:00,504
5/24/19 16:00,502
5/24/19 16:00,500
5/24/19 16:00,497
5/24/19 16:00,496
5/24/19 16:00,496
5/24/19 16:00,497
5/24/19 16:00,498
5/24/19 16:00,502
5/24/19 16:00,503
5/24/19 16:00,505
5/24/19 16:00,502
5/24/19 16:00,503
5/24/19 16:00,503
5/24/19 16:00,505
5/24/19 16:00,504
5/24/19 16:00,504
5/24/19 16:00,505
5/24/19 16:00,505
5/24/19 16:00,504
5/24/19 16:00,504
5/24/19 16:00,505
5/24/19 16:00,504
5/24/19 16:00,505
5/24/19 16:00,505
5/24/19 16:00,505
5/24/19 16:00,505
5/24/19 16:00,503
5/24/19 16:00,502
5/24/19 16:00,504
5/24/19 16:00,504
5/24/19 16:00,503
5/24/19 16:00,504
5/24/19 16:00,503
5/24/19 16:00,503
5/24/19 16:00,503
5/24/19 16:00,501
5/24/19 16:00,503
5/24/19 16:00,510
5/24/19 16:00,510
5/24/19 16:00,505
5/24/19 16:00,504
5/24/19 16:00,503
5/24/19 16:00,500
5/24/19 16:00,499
5/24/19 16:00,494
5/24/19 16:00,495
5/24/19 16:00,498
5/24/19 16:00,498
5/24/19 16:00,500
5/24/19 16:00,501
5/24/19 16:00,503
5/24/19 16:00,502
5/24/19 16:00,504
5/24/19 16:00,504
5/24/19 16:00,505
5/24/19 16:00,506
5/24/19 16:00,506
5/24/19 16:00,505
5/24/19 16:00,505
5/24/19 16:00,505
5/24/19 16:00,505
5/24/19 16:00,504
5/24/19 16:00,505
5/24/19 16:00,504
5/24/19 16:00,504
5/24/19 16:00,505
5/24/19 16:00,503
5/24/19 16:00,504
5/24/19 16:00,504
5/24/19 16:00,502
5/24/19 16:00,502
5/24/19 16:00,505
5/24/19 16:00,503
5/24/19 16:00,501
5/24/19 16:00,502
5/24/19 16:00,503
5/24/19 16:00,504
5/24/19 16:00,504
5/24/19 16:00,504
5/24/19 16:00,517
5/24/19 16:00,507
5/24/19 16:00,507
5/24/19 16:00,505
5/24/19 16:00,502
5/24/19 16:00,500
5/24/19 16:00,497
5/24/19 16:00,497
5/24/19 16:00,497
5/24/19 16:00,498
5/24/19 16:00,499
5/24/19 16:00,502
5/24/19 16:00,500
5/24/19 16:00,502
5/24/19 16:00,503
5/24/19 16:00,505
5/24/19 16:00,505
5/24/19 16:00,506
5/24/19 16:00,505
5/24/19 16:00,505
5/24/19 16:00,504
5/24/19 16:00,504
5/24/19 16:00,506
5/24/19 16:00,505
5/24/19 16:00,506
5/24/19 16:00,505
5/24/19 16:00,506
5/24/19 16:00,504
5/24/19 16:00,502
5/24/19 16:00,503
5/24/19 16:00,503
5/24/19 16:00,503
5/24/19 16:00,502
5/24/19 16:00,503
5/24/19 16:00,503
5/24/19 16:00,503
5/24/19 16:00,504
5/24/19 16:00,502
5/24/19 16:00,502
5/24/19 16:00,502
5/24/19 16:00,502
5/24/19 16:00,512
5/24/19 16:00,508
5/24/19 16:00,504
5/24/19 16:00,505
5/24/19 16:00,502
5/24/19 16:00,499
5/24/19 16:00,497
5/24/19 16:00,495
5/24/19 16:00,498
5/24/19 16:00,498
5/24/19 16:00,500
5/24/19 16:00,500
5/24/19 16:00,501
5/24/19 16:00,502
5/24/19 16:00,502
5/24/19 16:00,505
5/24/19 16:00,504
5/24/19 16:00,504
5/24/19 16:00,507
5/24/19 16:00,505
5/24/19 16:00,506
5/24/19 16:00,507
5/24/19 16:00,504
5/24/19 16:00,503
5/24/19 16:00,505
5/24/19 16:00,504
5/24/19 16:00,503
5/24/19 16:00,505
5/24/19 16:00,504
5/24/19 16:00,503
5/24/19 16:00,503
5/24/19 16:00,502
5/24/19 16:00,504
5/24/19 16:00,503
5/24/19 16:00,502
5/24/19 16:00,504
5/24/19 16:00,503
5/24/19 16:00,502
5/24/19 16:00,502
5/24/19 16:00,503
5/24/19 16:00,505
5/24/19 16:00,511
5/24/19 16:00,514
5/24/19 16:00,508
5/24/19 16:00,505
5/24/19 16:00,504
5/24/19 16:00,500
5/24/19 16:00,497
5/24/19 16:00,498
5/24/19 16:00,498
5/24/19 16:00,498
5/24/19 16:00,498
5/24/19 16:00,499
5/24/19 16:00,501
5/24/19 16:00,501
5/24/19 16:00,503
5/24/19 16:00,502
5/24/19 16:00,504
5/24/19 16:00,504
5/24/19 16:00,504
5/24/19 16:00,505
5/24/19 16:00,505
5/24/19 16:00,506
5/24/19 16:00,507
5/24/19 16:00,505
5/24/19 16:00,504
5/24/19 16:00,506
5/24/19 16:00,503
5/24/19 16:00,503
5/24/19 16:00,503
5/24/19 16:00,504
5/24/19 16:00,504
5/24/19 16:00,503
5/24/19 16:00,502
5/24/19 16:00,502
5/24/19 16:00,504
5/24/19 16:00,502
5/24/19 16:00,504
5/24/19 16:00,502
5/24/19 16:00,503
5/24/19 16:00,503
5/24/19 16:00,502
5/24/19 16:00,513
5/24/19 16:00,507
5/24/19 16:00,507
5/24/19 16:00,504
5/24/19 16:00,503
5/24/19 16:00,500
5/24/19 16:00,498
5/24/19 16:00,495
5/24/19 16:00,499
5/24/19 16:00,500
5/24/19 16:00,500
5/24/19 16:00,501
5/24/19 16:00,500
5/24/19 16:00,503
5/24/19 16:00,504
5/24/19 16:00,505
5/24/19 16:00,503
5/24/19 16:00,504
5/24/19 16:00,505
5/24/19 16:00,506
5/24/19 16:00,505
5/24/19 16:00,505
5/24/19 16:00,504
5/24/19 16:00,506
5/24/19 16:00,504
5/24/19 16:00,506
5/24/19 16:00,502
5/24/19 16:00,503
5/24/19 16:00,504
5/24/19 16:00,505
5/24/19 16:00,502
5/24/19 16:00,503
5/24/19 16:00,503
5/24/19 16:00,503
5/24/19 16:00,502
5/24/19 16:00,503
5/24/19 16:00,502
5/24/19 16:00,504
5/24/19 16:00,502
5/24/19 16:00,503
5/24/19 16:00,502
5/24/19 16:00,510
5/24/19 16:00,513
5/24/19 16:00,506
5/24/19 16:00,503
5/24/19 16:00,504
5/24/19 16:00,502
5/24/19 16:00,500
5/24/19 16:00,497
5/24/19 16:00,496
5/24/19 16:00,498
5/24/19 16:00,500
5/24/19 16:00,499
5/24/19 16:00,501
5/24/19 16:00,502
5/24/19 16:00,502
5/24/19 16:00,502
5/24/19 16:00,506
5/24/19 16:00,505
5/24/19 16:00,505
5/24/19 16:00,505
5/24/19 16:00,505
5/24/19 16:00,507
5/24/19 16:00,506
5/24/19 16:00,505
5/24/19 16:00,504
5/24/19 16:00,504
5/24/19 16:00,504
5/24/19 16:00,504
5/24/19 16:00,503
5/24/19 16:00,503
5/24/19 16:00,504
5/24/19 16:00,503
5/24/19 16:00,504
5/24/19 16:00,504
5/24/19 16:00,504
5/24/19 16:00,502
5/24/19 16:00,502
5/24/19 16:00,503
5/24/19 16:00,502
5/24/19 16:00,502
5/24/19 16:00,503
5/24/19 16:00,502
5/24/19 16:00,516
5/24/19 16:00,508
5/24/19 16:00,506
5/24/19 16:00,503
5/24/19 16:00,502
5/24/19 16:00,502
5/24/19 16:00,499
5/24/19 16:00,496
5/24/19 16:00,498
5/24/19 16:00,497
5/24/19 16:00,501
5/24/19 16:00,500
5/24/19 16:00,501
5/24/19 16:00,502
5/24/19 16:00,502
5/24/19 16:00,505
5/24/19 16:00,504
5/24/19 16:00,504
5/24/19 16:00,505
5/24/19 16:00,504
5/24/19 16:00,503
5/24/19 16:00,506
5/24/19 16:00,505
5/24/19 16:00,506
5/24/19 16:00,504
5/24/19 16:00,505
5/24/19 16:00,506
5/24/19 16:00,504
5/24/19 16:00,505
5/24/19 16:00,501
5/24/19 16:00,504
5/24/19 16:00,501
5/24/19 16:00,504
5/24/19 16:00,504
5/24/19 16:00,502
5/24/19 16:00,502
5/24/19 16:00,504
5/24/19 16:00,504
5/24/19 16:00,503
5/24/19 16:00,503
5/24/19 16:00,502
5/24/19 16:00,513
5/24/19 16:00,508
5/24/19 16:00,504
5/24/19 16:00,501
5/24/19 16:00,503
5/24/19 16:00,499
5/24/19 16:00,500
5/24/19 16:00,498
5/24/19 16:00,498
5/24/19 16:00,498
5/24/19 16:00,499
5/24/19 16:00,499
5/24/19 16:00,501
5/24/19 16:00,501
5/24/19 16:00,503
5/24/19 16:00,502
5/24/19 16:00,505
5/24/19 16:00,505
5/24/19 16:00,503
5/24/19 16:00,506
5/24/19 16:00,505
5/24/19 16:00,505
5/24/19 16:00,506
5/24/19 16:00,506
5/24/19 16:00,505
5/24/19 16:00,503
5/24/19 16:00,504
5/24/19 16:00,505
5/24/19 16:00,504
5/24/19 16:00,506
5/24/19 16:00,502
5/24/19 16:00,504
5/24/19 16:00,502
5/24/19 16:00,503
5/24/19 16:00,503
5/24/19 16:00,501
5/24/19 16:00,503
5/24/19 16:00,503
5/24/19 16:00,503
5/24/19 16:00,502
5/24/19 16:00,506
5/24/19 16:00,517
5/24/19 16:00,507
5/24/19 16:00,504
5/24/19 16:00,504
5/24/19 16:00,501
5/24/19 16:00,500
5/24/19 16:00,500
5/24/19 16:00,496
5/24/19 16:00,498
5/24/19 16:00,499
5/24/19 16:00,501
5/24/19 16:00,500
5/24/19 16:00,501
5/24/19 16:00,504
5/24/19 16:00,502
5/24/19 16:00,504
5/24/19 16:00,504
5/24/19 16:00,505
5/24/19 16:00,505
5/24/19 16:00,503
5/24/19 16:00,506
5/24/19 16:00,506
5/24/19 16:00,505
5/24/19 16:00,505
5/24/19 16:00,505
5/24/19 16:00,504
5/24/19 16:00,503
5/24/19 16:00,505
5/24/19 16:00,503
5/24/19 16:00,503
5/24/19 16:00,504
5/24/19 16:00,503
5/24/19 16:00,503
5/24/19 16:00,504
5/24/19 16:00,502
5/24/19 16:00,501
5/24/19 16:00,503
5/24/19 16:00,503
5/24/19 16:00,503
5/24/19 16:00,502
5/24/19 16:00,503
5/24/19 16:00,512
5/24/19 16:00,508
5/24/19 16:00,505
5/24/19 16:00,502
5/24/19 16:00,502
5/24/19 16:00,501
5/24/19 16:00,498
5/24/19 16:00,499
5/24/19 16:00,498
5/24/19 16:00,498
5/24/19 16:00,500
5/24/19 16:00,501
5/24/19 16:00,501
5/24/19 16:00,501
5/24/19 16:00,503
5/24/19 16:00,503
5/24/19 16:00,503
5/24/19 16:00,503
5/24/19 16:00,506
5/24/19 16:00,506
5/24/19 16:00,504
5/24/19 16:00,503
5/24/19 16:00,504
5/24/19 16:00,503
5/24/19 16:00,508
5/24/19 16:00,503
5/24/19 16:00,505
5/24/19 16:00,506
5/24/19 16:00,504
5/24/19 16:00,503
5/24/19 16:00,503
5/24/19 16:00,504
5/24/19 16:00,503
5/24/19 16:00,502
5/24/19 16:00,503
5/24/19 16:00,504
5/24/19 16:00,503
5/24/19 16:00,504
5/24/19 16:00,501
5/24/19 16:00,501
5/24/19 16:00,504
5/24/19 16:00,503
5/24/19 16:00,511
5/24/19 16:00,510
5/24/19 16:00,506
5/24/19 16:00,502
5/24/19 16:00,502
5/24/19 16:00,502
5/24/19 16:00,496
5/24/19 16:00,496
5/24/19 16:00,497
5/24/19 16:00,499
5/24/19 16:00,501
5/24/19 16:00,500
5/24/19 16:00,501
5/24/19 16:00,502
5/24/19 16:00,505
5/24/19 16:00,505
5/24/19 16:00,505
5/24/19 16:00,503
5/24/19 16:00,505
5/24/19 16:00,505
5/24/19 16:00,505
5/24/19 16:00,505
5/24/19 16:00,507
5/24/19 16:00,505
5/24/19 16:00,505
5/24/19 16:00,504
5/24/19 16:00,505
5/24/19 16:00,504
5/24/19 16:00,505
5/24/19 16:00,504
5/24/19 16:00,504
5/24/19 16:00,502
5/24/19 16:00,505
5/24/19 16:00,504
5/24/19 16:00,502
5/24/19 16:00,503
5/24/19 16:00,503
5/24/19 16:00,502
5/24/19 16:00,502
5/24/19 16:00,502
5/24/19 16:00,502
5/24/19 16:00,511
5/24/19 16:00,510
5/24/19 16:00,505
5/24/19 16:00,505
5/24/19 16:00,503
5/24/19 16:00,501
5/24/19 16:00,498
5/24/19 16:00,494
5/24/19 16:00,496
5/24/19 16:00,498
5/24/19 16:00,499
5/24/19 16:00,500
5/24/19 16:00,500
5/24/19 16:00,502
5/24/19 16:00,503
5/24/19 16:00,505
5/24/19 16:00,506
5/24/19 16:00,504
5/24/19 16:00,507
5/24/19 16:00,505
5/24/19 16:00,504
5/24/19 16:00,506
5/24/19 16:00,505
5/24/19 16:00,504
5/24/19 16:00,505
5/24/19 16:00,501
5/24/19 16:00,506
5/24/19 16:00,504
5/24/19 16:00,505
5/24/19 16:00,503
5/24/19 16:00,503
5/24/19 16:00,502
5/24/19 16:00,501
5/24/19 16:00,502
5/24/19 16:00,504
5/24/19 16:00,504
5/24/19 16:00,503
5/24/19 16:00,504
5/24/19 16:00,503
5/24/19 16:00,503
5/24/19 16:00,502
5/24/19 16:00,507
5/24/19 16:00,517
5/24/19 16:00,506
5/24/19 16:00,503
5/24/19 16:00,503
5/24/19 16:00,501
5/24/19 16:00,498
5/24/19 16:00,499
5/24/19 16:00,497
5/24/19 16:00,499
5/24/19 16:00,498
5/24/19 16:00,499
5/24/19 16:00,500
5/24/19 16:00,502
5/24/19 16:00,501
5/24/19 16:00,502
5/24/19 16:00,503
5/24/19 16:00,505
5/24/19 16:00,507
5/24/19 16:00,505
5/24/19 16:00,505
5/24/19 16:00,505
5/24/19 16:00,505
5/24/19 16:00,504
5/24/19 16:00,505
5/24/19 16:00,505
5/24/19 16:00,504
5/24/19 16:00,506
5/24/19 16:00,504
5/24/19 16:00,504
5/24/19 16:00,501
5/24/19 16:00,504
5/24/19 16:00,503
5/24/19 16:00,503
5/24/19 16:00,503
5/24/19 16:00,502
5/24/19 16:00,501
5/24/19 16:00,502
5/24/19 16:00,501
5/24/19 16:00,502
5/24/19 16:00,504
5/24/19 16:00,509
5/24/19 16:00,515
5/24/19 16:00,506
5/24/19 16:00,505
5/24/19 16:00,504
5/24/19 16:00,503
5/24/19 16:00,499
5/24/19 16:00,497
5/24/19 16:00,496
5/24/19 16:00,497
5/24/19 16:00,499
5/24/19 16:00,501
5/24/19 16:00,501
5/24/19 16:00,503
5/24/19 16:00,504
5/24/19 16:00,503
5/24/19 16:00,505
5/24/19 16:00,505
5/24/19 16:00,505
5/24/19 16:00,504
5/24/19 16:00,504
5/24/19 16:00,505
5/24/19 16:00,506
5/24/19 16:00,506
5/24/19 16:00,505
5/24/19 16:09,503
5/24/19 16:09,503
5/24/19 16:09,503
5/24/19 16:09,505
5/24/19 16:09,504
5/24/19 16:09,503
5/24/19 16:09,503
5/24/19 16:09,502
5/24/19 16:09,503
5/24/19 16:09,504
5/24/19 16:09,503
5/24/19 16:09,503
5/24/19 16:09,504
5/24/19 16:09,502
5/24/19 16:09,503
5/24/19 16:09,505
5/24/19 16:09,502
5/24/19 16:09,510
5/24/19 16:09,510
5/24/19 16:09,504
5/24/19 16:09,504
5/24/19 16:09,503
5/24/19 16:09,501
5/24/19 16:09,501
5/24/19 16:09,499
5/24/19 16:09,499
5/24/19 16:09,498
5/24/19 16:09,500
5/24/19 16:09,498
5/24/19 16:09,500
5/24/19 16:09,502
5/24/19 16:09,503
5/24/19 16:09,501
5/24/19 16:09,503
5/24/19 16:09,504
5/24/19 16:09,504
5/24/19 16:09,505
5/24/19 16:09,505
5/24/19 16:09,506
5/24/19 16:09,507
5/24/19 16:09,505
5/24/19 16:09,504
5/24/19 16:09,505
5/24/19 16:09,505
5/24/19 16:09,506
5/24/19 16:09,505
5/24/19 16:09,505
5/24/19 16:09,502
5/24/19 16:09,503
5/24/19 16:09,503
5/24/19 16:09,501
5/24/19 16:09,503
5/24/19 16:09,502
5/24/19 16:09,503
5/24/19 16:09,503
5/24/19 16:09,502
5/24/19 16:09,503
5/24/19 16:09,503
5/24/19 16:09,514
5/24/19 16:09,507
5/24/19 16:09,505
5/24/19 16:09,503
5/24/19 16:09,500
5/24/19 16:09,500
5/24/19 16:09,501
5/24/19 16:09,498
5/24/19 16:09,496
5/24/19 16:09,497
5/24/19 16:09,500
5/24/19 16:09,500
5/24/19 16:09,501
5/24/19 16:09,503
5/24/19 16:09,503
5/24/19 16:09,505
5/24/19 16:09,504
5/24/19 16:09,506
5/24/19 16:09,504
5/24/19 16:09,505
5/24/19 16:09,503
5/24/19 16:09,504
5/24/19 16:09,504
5/24/19 16:09,506
5/24/19 16:09,506
5/24/19 16:09,504
5/24/19 16:09,506
5/24/19 16:09,503
5/24/19 16:09,503
5/24/19 16:09,504
5/24/19 16:09,503
5/24/19 16:09,503
5/24/19 16:09,503
5/24/19 16:09,504
5/24/19 16:09,502
5/24/19 16:09,502
5/24/19 16:09,504
5/24/19 16:09,503
5/24/19 16:09,504
5/24/19 16:09,503
5/24/19 16:09,510
5/24/19 16:09,514
5/24/19 16:09,505
5/24/19 16:09,504
5/24/19 16:09,504
5/24/19 16:09,502
5/24/19 16:09,500
5/24/19 16:09,497
5/24/19 16:09,497
5/24/19 16:09,499
5/24/19 16:09,497
5/24/19 16:09,499
5/24/19 16:09,500
5/24/19 16:09,502
5/24/19 16:09,503
5/24/19 16:09,503
5/24/19 16:09,503
5/24/19 16:09,505
5/24/19 16:09,506
5/24/19 16:09,506
5/24/19 16:09,504
5/24/19 16:09,506
5/24/19 16:09,504
5/24/19 16:09,505
5/24/19 16:09,507
5/24/19 16:09,505
5/24/19 16:09,505
5/24/19 16:09,504
5/24/19 16:09,504
5/24/19 16:09,503
5/24/19 16:09,503
5/24/19 16:09,503
5/24/19 16:09,503
5/24/19 16:09,503
5/24/19 16:09,503
5/24/19 16:09,503
5/24/19 16:09,503
5/24/19 16:09,504
5/24/19 16:09,503
5/24/19 16:09,505
5/24/19 16:09,503
5/24/19 16:09,506
5/24/19 16:09,517
5/24/19 16:09,505
5/24/19 16:09,506
5/24/19 16:09,503
5/24/19 16:09,504
5/24/19 16:09,502
5/24/19 16:09,497
5/24/19 16:09,497
5/24/19 16:09,497
5/24/19 16:09,496
5/24/19 16:09,499
5/24/19 16:09,502
5/24/19 16:09,501
5/24/19 16:09,502
5/24/19 16:09,504
5/24/19 16:09,502
5/24/19 16:09,504
5/24/19 16:09,504
5/24/19 16:09,504
5/24/19 16:09,504
5/24/19 16:09,504
5/24/19 16:09,509
5/24/19 16:09,506
5/24/19 16:09,505
5/24/19 16:09,505
5/24/19 16:09,504
5/24/19 16:09,504
5/24/19 16:09,504
5/24/19 16:09,502
5/24/19 16:09,505
5/24/19 16:09,503
5/24/19 16:09,505
5/24/19 16:09,503
5/24/19 16:09,502
5/24/19 16:09,502
5/24/19 16:09,500
5/24/19 16:09,503
5/24/19 16:09,503
5/24/19 16:09,503
5/24/19 16:09,504
5/24/19 16:09,503
5/24/19 16:09,516
5/24/19 16:09,508
5/24/19 16:09,506
5/24/19 16:09,504
5/24/19 16:09,503
5/24/19 16:09,499
5/24/19 16:09,499
5/24/19 16:09,498
5/24/19 16:09,500
5/24/19 16:09,497
5/24/19 16:09,499
5/24/19 16:09,500
5/24/19 16:09,501
5/24/19 16:09,502
5/24/19 16:09,503
5/24/19 16:09,504
5/24/19 16:09,503
5/24/19 16:09,504
5/24/19 16:09,506
5/24/19 16:09,505
5/24/19 16:09,505
5/24/19 16:09,506
5/24/19 16:09,506
5/24/19 16:09,505
5/24/19 16:09,504
5/24/19 16:09,505
5/24/19 16:09,506
5/24/19 16:09,504
5/24/19 16:09,505
5/24/19 16:09,503
5/24/19 16:09,503
5/24/19 16:09,503
5/24/19 16:09,502
5/24/19 16:09,501
5/24/19 16:09,503
5/24/19 16:09,503
5/24/19 16:09,502
5/24/19 16:09,503
5/24/19 16:09,505
5/24/19 16:09,503
5/24/19 16:09,503
5/24/19 16:09,506
5/24/19 16:09,515
5/24/19 16:09,506
5/24/19 16:09,503
5/24/19 16:09,503
5/24/19 16:09,502
5/24/19 16:09,499
5/24/19 16:09,498
5/24/19 16:09,497
5/24/19 16:09,497
5/24/19 16:09,499
5/24/19 16:09,500
5/24/19 16:09,499
5/24/19 16:09,501
5/24/19 16:09,502
5/24/19 16:09,503
5/24/19 16:09,505
5/24/19 16:09,503
5/24/19 16:09,505
5/24/19 16:09,505
5/24/19 16:09,505
5/24/19 16:09,503
5/24/19 16:09,505
5/24/19 16:09,507
5/24/19 16:09,505
5/24/19 16:09,506
5/24/19 16:09,505
5/24/19 16:09,506
5/24/19 16:09,503
5/24/19 16:09,503
5/24/19 16:09,504
5/24/19 16:09,503
5/24/19 16:09,504
5/24/19 16:09,503
5/24/19 16:09,503
5/24/19 16:09,503
5/24/19 16:09,503
5/24/19 16:09,504
5/24/19 16:09,502
5/24/19 16:09,503
5/24/19 16:09,502
5/24/19 16:09,505
5/24/19 16:09,510
5/24/19 16:09,507
5/24/19 16:09,506
5/24/19 16:09,505
5/24/19 16:09,502
5/24/19 16:09,502
5/24/19 16:09,499
5/24/19 16:09,497
5/24/19 16:09,497
5/24/19 16:09,499
5/24/19 16:09,500
5/24/19 16:09,499
5/24/19 16:09,500
5/24/19 16:09,503
5/24/19 16:09,502
5/24/19 16:09,504
5/24/19 16:09,503
5/24/19 16:09,505
5/24/19 16:09,504
5/24/19 16:09,506
5/24/19 16:09,505
5/24/19 16:09,505
5/24/19 16:09,506
5/24/19 16:09,505
5/24/19 16:09,504
5/24/19 16:09,501
5/24/19 16:09,505
5/24/19 16:09,504
5/24/19 16:09,505
5/24/19 16:09,504
5/24/19 16:09,503
5/24/19 16:09,503
5/24/19 16:09,504
5/24/19 16:09,503
5/24/19 16:09,504
5/24/19 16:09,503
5/24/19 16:09,501
5/24/19 16:09,502
5/24/19 16:09,503
5/24/19 16:09,503
5/24/19 16:09,504
5/24/19 16:09,502
5/24/19 16:09,517
5/24/19 16:09,508
5/24/19 16:09,504
5/24/19 16:09,505
5/24/19 16:09,502
5/24/19 16:09,500
5/24/19 16:09,498
5/24/19 16:09,495
5/24/19 16:09,497
5/24/19 16:09,499
5/24/19 16:09,499
5/24/19 16:09,500
5/24/19 16:09,501
5/24/19 16:09,502
5/24/19 16:09,504
5/24/19 16:09,504
5/24/19 16:09,504
5/24/19 16:09,505
5/24/19 16:09,506
5/24/19 16:09,505
5/24/19 16:09,504
5/24/19 16:09,506
5/24/19 16:09,504
5/24/19 16:09,504
5/24/19 16:09,504
5/24/19 16:09,502
5/24/19 16:09,503
5/24/19 16:09,504
5/24/19 16:09,503
5/24/19 16:09,503
5/24/19 16:09,505
5/24/19 16:09,502
5/24/19 16:09,503
5/24/19 16:09,503
5/24/19 16:09,501
5/24/19 16:09,503
5/24/19 16:09,504
5/24/19 16:09,505
5/24/19 16:09,504
5/24/19 16:09,504
5/24/19 16:09,503
5/24/19 16:09,515
5/24/19 16:09,507
5/24/19 16:09,505
5/24/19 16:09,502
5/24/19 16:09,500
5/24/19 16:09,500
5/24/19 16:09,498
5/24/19 16:09,499
5/24/19 16:09,497
5/24/19 16:09,499
5/24/19 16:09,499
5/24/19 16:09,501
5/24/19 16:09,502
5/24/19 16:09,502
5/24/19 16:09,503
5/24/19 16:09,503
5/24/19 16:09,502
5/24/19 16:09,504
5/24/19 16:09,503
5/24/19 16:09,506
5/24/19 16:09,507
5/24/19 16:09,506
5/24/19 16:09,505
5/24/19 16:09,506
5/24/19 16:09,504
5/24/19 16:09,504
5/24/19 16:09,503
5/24/19 16:09,503
5/24/19 16:09,502
5/24/19 16:09,503
5/24/19 16:09,503
5/24/19 16:09,504
5/24/19 16:09,505
5/24/19 16:09,503
5/24/19 16:09,502
5/24/19 16:09,503
5/24/19 16:09,502
5/24/19 16:09,503
5/24/19 16:09,502
5/24/19 16:09,503
5/24/19 16:09,504
5/24/19 16:09,512
5/24/19 16:09,507
5/24/19 16:09,504
5/24/19 16:09,504
5/24/19 16:09,501
5/24/19 16:09,500
5/24/19 16:09,499
5/24/19 16:09,497
5/24/19 16:09,498
5/24/19 16:09,498
5/24/19 16:09,500
5/24/19 16:09,499
5/24/19 16:09,501
5/24/19 16:09,502
5/24/19 16:09,503
5/24/19 16:09,505
5/24/19 16:09,504
5/24/19 16:09,506
5/24/19 16:09,505
5/24/19 16:09,505
5/24/19 16:09,503
5/24/19 16:09,505
5/24/19 16:09,505
5/24/19 16:09,506
5/24/19 16:09,505
5/24/19 16:09,505
5/24/19 16:09,504
5/24/19 16:09,504
5/24/19 16:09,505
5/24/19 16:09,502
5/24/19 16:09,502
5/24/19 16:09,504
5/24/19 16:09,503
5/24/19 16:09,503
5/24/19 16:09,502
5/24/19 16:09,503
5/24/19 16:09,504
5/24/19 16:09,503
5/24/19 16:09,502
5/24/19 16:09,503
5/24/19 16:09,511
5/24/19 16:09,511
5/24/19 16:09,505
5/24/19 16:09,506
5/24/19 16:09,503
5/24/19 16:09,503
5/24/19 16:09,499
5/24/19 16:09,498
5/24/19 16:09,496
5/24/19 16:09,497
5/24/19 16:09,499
5/24/19 16:09,499
5/24/19 16:09,499
5/24/19 16:09,501
5/24/19 16:09,501
5/24/19 16:09,502
5/24/19 16:09,502
5/24/19 16:09,503
5/24/19 16:09,505
5/24/19 16:09,504
5/24/19 16:09,505
5/24/19 16:09,506
5/24/19 16:09,507
5/24/19 16:09,504
5/24/19 16:09,505
5/24/19 16:09,505
5/24/19 16:09,506
5/24/19 16:09,505
5/24/19 16:09,506
5/24/19 16:09,502
5/24/19 16:09,503
5/24/19 16:09,504
5/24/19 16:09,502
5/24/19 16:09,504
5/24/19 16:09,503
5/24/19 16:09,501
5/24/19 16:09,501
5/24/19 16:09,503
5/24/19 16:09,504
5/24/19 16:09,503
5/24/19 16:09,503
5/24/19 16:09,511
5/24/19 16:09,507
5/24/19 16:09,506
5/24/19 16:09,504
5/24/19 16:09,505
5/24/19 16:09,500
5/24/19 16:09,499
5/24/19 16:09,499
5/24/19 16:09,496
5/24/19 16:09,498
5/24/19 16:09,500
5/24/19 16:09,500
5/24/19 16:09,502
5/24/19 16:09,502
5/24/19 16:09,502
5/24/19 16:09,504
5/24/19 16:09,504
5/24/19 16:09,502
5/24/19 16:09,504
5/24/19 16:09,505
5/24/19 16:09,505
5/24/19 16:09,505
5/24/19 16:09,506
5/24/19 16:09,505
5/24/19 16:09,505
5/24/19 16:09,504
5/24/19 16:09,504
5/24/19 16:09,504
5/24/19 16:09,505
5/24/19 16:09,505
5/24/19 16:09,503
5/24/19 16:09,502
5/24/19 16:09,502
5/24/19 16:09,502
5/24/19 16:09,503
5/24/19 16:09,504
5/24/19 16:09,503
5/24/19 16:09,505
5/24/19 16:09,501
5/24/19 16:09,503
5/24/19 16:09,504
5/24/19 16:09,516
5/24/19 16:09,506
5/24/19 16:09,506
5/24/19 16:09,505
5/24/19 16:09,501
5/24/19 16:09,501
5/24/19 16:09,497
5/24/19 16:09,497
5/24/19 16:09,497
5/24/19 16:09,499
5/24/19 16:09,499
5/24/19 16:09,499
5/24/19 16:09,501
5/24/19 16:09,503
5/24/19 16:09,502
5/24/19 16:09,504
5/24/19 16:09,505
5/24/19 16:09,503
5/24/19 16:09,504
5/24/19 16:09,505
5/24/19 16:09,505
5/24/19 16:09,506
5/24/19 16:09,504
5/24/19 16:09,503
5/24/19 16:09,503
5/24/19 16:09,507
5/24/19 16:09,505
5/24/19 16:09,504
5/24/19 16:09,505
5/24/19 16:09,502
5/24/19 16:09,504
5/24/19 16:09,503
5/24/19 16:09,502
5/24/19 16:09,502
5/24/19 16:09,503
5/24/19 16:09,504
5/24/19 16:09,503
5/24/19 16:09,502
5/24/19 16:09,503
5/24/19 16:09,504
5/24/19 16:09,503
5/24/19 16:09,515
5/24/19 16:09,508
5/24/19 16:09,505
5/24/19 16:09,503
5/24/19 16:09,502
5/24/19 16:09,501
5/24/19 16:09,498
5/24/19 16:09,498
5/24/19 16:09,498
5/24/19 16:09,499
5/24/19 16:09,500
5/24/19 16:09,501
5/24/19 16:09,500
5/24/19 16:09,502
5/24/19 16:09,501
5/24/19 16:09,504
5/24/19 16:09,503
5/24/19 16:09,505
5/24/19 16:09,506
5/24/19 16:09,505
5/24/19 16:09,507
5/24/19 16:09,503
5/24/19 16:09,503
5/24/19 16:09,504
5/24/19 16:09,505
5/24/19 16:09,506
5/24/19 16:09,505
5/24/19 16:09,505
5/24/19 16:09,504
5/24/19 16:09,502
5/24/19 16:09,502
5/24/19 16:09,503
5/24/19 16:09,503
5/24/19 16:09,505
5/24/19 16:09,502
5/24/19 16:09,502
5/24/19 16:09,503
5/24/19 16:09,502
5/24/19 16:09,505
5/24/19 16:09,504
5/24/19 16:09,503
5/24/19 16:09,513
5/24/19 16:09,509
5/24/19 16:09,505
5/24/19 16:09,504
5/24/19 16:09,502
5/24/19 16:09,499
5/24/19 16:09,498
5/24/19 16:09,498
5/24/19 16:18,503
5/24/19 16:18,504
5/24/19 16:18,501
5/24/19 16:18,502
5/24/19 16:18,502
5/24/19 16:18,503
5/24/19 16:18,502
5/24/19 16:18,502
5/24/19 16:18,511
5/24/19 16:18,511
5/24/19 16:18,507
5/24/19 16:18,504
5/24/19 16:18,502
5/24/19 16:18,500
5/24/19 16:18,500
5/24/19 16:18,500
5/24/19 16:18,501
5/24/19 16:18,499
5/24/19 16:18,500
5/24/19 16:18,500
5/24/19 16:18,500
5/24/19 16:18,499
5/24/19 16:18,501
5/24/19 16:18,503
5/24/19 16:18,503
5/24/19 16:18,505
5/24/19 16:18,506
5/24/19 16:18,505
5/24/19 16:18,504
5/24/19 16:18,506
5/24/19 16:18,505
5/24/19 16:18,505
5/24/19 16:18,504
5/24/19 16:18,506
5/24/19 16:18,503
5/24/19 16:18,507
5/24/19 16:18,504
5/24/19 16:18,502
5/24/19 16:18,502
5/24/19 16:18,503
5/24/19 16:18,502
5/24/19 16:18,503
5/24/19 16:18,502
5/24/19 16:18,503
5/24/19 16:18,502
5/24/19 16:18,503
5/24/19 16:18,504
5/24/19 16:18,503
5/24/19 16:18,503
5/24/19 16:18,511
5/24/19 16:18,511
5/24/19 16:18,505
5/24/19 16:18,504
5/24/19 16:18,503
5/24/19 16:18,500
5/24/19 16:18,499
5/24/19 16:18,499
5/24/19 16:18,499
5/24/19 16:18,500
5/24/19 16:18,498
5/24/19 16:18,499
5/24/19 16:18,498
5/24/19 16:18,500
5/24/19 16:18,502
5/24/19 16:18,504
5/24/19 16:18,505
