X,Bin ECG
1/15/19 13:09,508
1/15/19 13:09,509
1/15/19 13:09,508
1/15/19 13:09,510
1/15/19 13:09,506
1/15/19 13:09,509
1/15/19 13:09,506
1/15/19 13:09,507
1/15/19 13:09,510
1/15/19 13:09,506
1/15/19 13:09,510
1/15/19 13:09,507
1/15/19 13:09,508
1/15/19 13:09,508
1/15/19 13:09,506
1/15/19 13:09,509
1/15/19 13:09,506
1/15/19 13:09,508
1/15/19 13:09,508
1/15/19 13:09,507
1/15/19 13:09,509
1/15/19 13:09,506
1/15/19 13:09,509
1/15/19 13:09,513
1/15/19 13:09,513
1/15/19 13:09,505
1/15/19 13:09,502
1/15/19 13:09,505
1/15/19 13:09,507
1/15/19 13:09,507
1/15/19 13:09,507
1/15/19 13:09,505
1/15/19 13:09,507
1/15/19 13:09,507
1/15/19 13:09,506
1/15/19 13:09,509
1/15/19 13:09,506
1/15/19 13:09,508
1/15/19 13:09,506
1/15/19 13:09,506
1/15/19 13:09,509
1/15/19 13:09,508
1/15/19 13:09,509
1/15/19 13:09,508
1/15/19 13:09,507
1/15/19 13:09,510
1/15/19 13:09,508
1/15/19 13:09,508
1/15/19 13:09,509
1/15/19 13:09,508
1/15/19 13:09,512
1/15/19 13:09,506
1/15/19 13:09,509
1/15/19 13:09,507
1/15/19 13:09,505
1/15/19 13:09,509
1/15/19 13:09,505
1/15/19 13:09,508
1/15/19 13:09,507
1/15/19 13:09,508
1/15/19 13:09,509
1/15/19 13:09,506
1/15/19 13:09,508
1/15/19 13:09,507
1/15/19 13:09,506
1/15/19 13:09,509
1/15/19 13:09,507
1/15/19 13:09,510
1/15/19 13:09,505
1/15/19 13:09,507
1/15/19 13:09,510
1/15/19 13:09,504
1/15/19 13:09,509
1/15/19 13:09,507
1/15/19 13:09,508
1/15/19 13:09,518
1/15/19 13:09,511
1/15/19 13:09,504
1/15/19 13:09,504
1/15/19 13:09,506
1/15/19 13:09,510
1/15/19 13:09,505
1/15/19 13:09,508
1/15/19 13:09,506
1/15/19 13:09,505
1/15/19 13:09,509
1/15/19 13:09,505
1/15/19 13:09,508
1/15/19 13:09,506
1/15/19 13:09,506
1/15/19 13:09,509
1/15/19 13:09,507
1/15/19 13:09,509
1/15/19 13:09,506
1/15/19 13:09,508
1/15/19 13:09,509
1/15/19 13:09,508
1/15/19 13:09,511
1/15/19 13:09,507
1/15/19 13:09,508
1/15/19 13:09,509
1/15/19 13:09,505
1/15/19 13:09,513
1/15/19 13:09,507
1/15/19 13:09,509
1/15/19 13:09,509
1/15/19 13:09,507
1/15/19 13:09,509
1/15/19 13:09,506
1/15/19 13:09,507
1/15/19 13:09,509
1/15/19 13:09,506
1/15/19 13:09,508
1/15/19 13:09,505
1/15/19 13:09,508
1/15/19 13:09,508
1/15/19 13:09,507
1/15/19 13:09,509
1/15/19 13:09,506
1/15/19 13:09,507
1/15/19 13:09,508
1/15/19 13:09,505
1/15/19 13:09,509
1/15/19 13:09,506
1/15/19 13:09,507
1/15/19 13:09,509
1/15/19 13:09,511
1/15/19 13:09,517
1/15/19 13:09,500
1/15/19 13:09,506
1/15/19 13:09,507
1/15/19 13:09,507
1/15/19 13:09,510
1/15/19 13:09,503
1/15/19 13:09,506
1/15/19 13:09,508
1/15/19 13:09,506
1/15/19 13:09,510
1/15/19 13:09,506
1/15/19 13:09,507
1/15/19 13:09,509
1/15/19 13:09,508
1/15/19 13:09,509
1/15/19 13:09,508
1/15/19 13:09,508
1/15/19 13:09,509
1/15/19 13:09,507
1/15/19 13:09,510
1/15/19 13:09,506
1/15/19 13:09,509
1/15/19 13:09,506
1/15/19 13:09,505
1/15/19 13:09,511
1/15/19 13:09,507
1/15/19 13:09,508
1/15/19 13:09,509
1/15/19 13:09,508
1/15/19 13:09,509
1/15/19 13:09,505
1/15/19 13:09,509
1/15/19 13:09,508
1/15/19 13:09,506
1/15/19 13:09,509
1/15/19 13:09,506
1/15/19 13:09,510
1/15/19 13:09,506
1/15/19 13:09,507
1/15/19 13:09,509
1/15/19 13:09,506
1/15/19 13:09,507
1/15/19 13:09,508
1/15/19 13:09,507
1/15/19 13:09,509
1/15/19 13:09,507
1/15/19 13:09,508
1/15/19 13:09,505
1/15/19 13:09,506
1/15/19 13:09,507
1/15/19 13:09,516
1/15/19 13:09,507
1/15/19 13:09,503
1/15/19 13:09,505
1/15/19 13:09,508
1/15/19 13:09,505
1/15/19 13:09,510
1/15/19 13:09,507
1/15/19 13:09,505
1/15/19 13:09,506
1/15/19 13:09,506
1/15/19 13:09,509
1/15/19 13:09,506
1/15/19 13:09,508
1/15/19 13:09,510
1/15/19 13:09,507
1/15/19 13:09,510
1/15/19 13:09,509
1/15/19 13:09,509
1/15/19 13:09,510
1/15/19 13:09,505
1/15/19 13:09,511
1/15/19 13:09,509
1/15/19 13:09,507
1/15/19 13:09,508
1/15/19 13:09,506
1/15/19 13:09,509
1/15/19 13:09,507
1/15/19 13:09,508
1/15/19 13:09,508
1/15/19 13:09,507
1/15/19 13:09,510
1/15/19 13:09,504
1/15/19 13:09,508
1/15/19 13:09,506
1/15/19 13:09,506
1/15/19 13:09,511
1/15/19 13:09,507
1/15/19 13:09,506
1/15/19 13:09,509
1/15/19 13:09,506
1/15/19 13:09,510
1/15/19 13:09,508
1/15/19 13:09,508
1/15/19 13:09,508
1/15/19 13:09,507
1/15/19 13:09,510
1/15/19 13:09,505
1/15/19 13:09,507
1/15/19 13:09,509
1/15/19 13:09,506
1/15/19 13:09,521
1/15/19 13:09,501
1/15/19 13:09,504
1/15/19 13:09,506
1/15/19 13:09,504
1/15/19 13:09,510
1/15/19 13:09,506
1/15/19 13:09,507
1/15/19 13:09,506
1/15/19 13:09,504
1/15/19 13:09,509
1/15/19 13:09,506
1/15/19 13:09,507
1/15/19 13:09,508
1/15/19 13:09,507
1/15/19 13:09,510
1/15/19 13:09,507
1/15/19 13:09,511
1/15/19 13:09,510
1/15/19 13:09,507
1/15/19 13:09,510
1/15/19 13:09,507
1/15/19 13:09,510
1/15/19 13:09,508
1/15/19 13:09,508
1/15/19 13:09,509
1/15/19 13:09,508
1/15/19 13:09,509
1/15/19 13:09,506
1/15/19 13:09,506
1/15/19 13:09,509
1/15/19 13:09,506
1/15/19 13:09,509
1/15/19 13:09,508
1/15/19 13:09,506
1/15/19 13:09,508
1/15/19 13:09,506
1/15/19 13:09,507
1/15/19 13:09,507
1/15/19 13:09,508
1/15/19 13:09,508
1/15/19 13:09,507
1/15/19 13:09,509
1/15/19 13:09,508
1/15/19 13:09,506
1/15/19 13:09,509
1/15/19 13:09,506
1/15/19 13:09,509
1/15/19 13:09,508
1/15/19 13:09,506
1/15/19 13:09,510
1/15/19 13:09,507
1/15/19 13:09,521
1/15/19 13:09,502
1/15/19 13:09,504
1/15/19 13:09,506
1/15/19 13:09,507
1/15/19 13:09,508
1/15/19 13:09,503
1/15/19 13:09,504
1/15/19 13:09,508
1/15/19 13:09,505
1/15/19 13:09,507
1/15/19 13:09,507
1/15/19 13:09,506
1/15/19 13:09,508
1/15/19 13:09,506
1/15/19 13:09,509
1/15/19 13:09,507
1/15/19 13:09,510
1/15/19 13:09,511
1/15/19 13:09,509
1/15/19 13:09,509
1/15/19 13:09,506
1/15/19 13:09,508
1/15/19 13:09,509
1/15/19 13:09,507
1/15/19 13:09,510
1/15/19 13:09,508
1/15/19 13:09,508
1/15/19 13:09,508
1/15/19 13:09,507
1/15/19 13:09,510
1/15/19 13:09,507
1/15/19 13:09,508
1/15/19 13:09,509
1/15/19 13:09,506
1/15/19 13:09,509
1/15/19 13:09,506
1/15/19 13:09,505
1/15/19 13:09,507
1/15/19 13:09,506
1/15/19 13:09,510
1/15/19 13:09,504
1/15/19 13:09,509
1/15/19 13:09,509
1/15/19 13:09,505
1/15/19 13:09,510
1/15/19 13:09,507
1/15/19 13:09,508
1/15/19 13:09,509
1/15/19 13:09,507
1/15/19 13:09,509
1/15/19 13:09,507
1/15/19 13:09,517
1/15/19 13:09,504
1/15/19 13:09,503
1/15/19 13:09,507
1/15/19 13:09,505
1/15/19 13:09,508
1/15/19 13:09,506
1/15/19 13:09,504
1/15/19 13:09,508
1/15/19 13:09,506
1/15/19 13:09,510
1/15/19 13:09,510
1/15/19 13:09,507
1/15/19 13:09,508
1/15/19 13:09,506
1/15/19 13:09,508
1/15/19 13:09,508
1/15/19 13:09,506
1/15/19 13:09,510
1/15/19 13:09,509
1/15/19 13:09,510
1/15/19 13:09,508
1/15/19 13:09,509
1/15/19 13:09,511
1/15/19 13:09,506
1/15/19 13:09,508
1/15/19 13:09,508
1/15/19 13:09,507
1/15/19 13:09,510
1/15/19 13:09,507
1/15/19 13:09,510
1/15/19 13:09,508
1/15/19 13:09,507
1/15/19 13:09,509
1/15/19 13:09,507
1/15/19 13:09,510
1/15/19 13:09,507
1/15/19 13:09,506
1/15/19 13:09,507
1/15/19 13:09,507
1/15/19 13:09,509
1/15/19 13:09,506
1/15/19 13:09,506
1/15/19 13:09,508
1/15/19 13:09,507
1/15/19 13:09,509
1/15/19 13:09,507
1/15/19 13:09,507
1/15/19 13:09,507
1/15/19 13:09,506
1/15/19 13:09,511
1/15/19 13:09,520
1/15/19 13:09,502
1/15/19 13:09,506
1/15/19 13:09,505
1/15/19 13:09,507
1/15/19 13:09,508
1/15/19 13:09,507
1/15/19 13:09,506
1/15/19 13:09,505
1/15/19 13:09,509
1/15/19 13:09,505
1/15/19 13:09,506
1/15/19 13:09,506
1/15/19 13:09,508
1/15/19 13:09,508
1/15/19 13:09,509
1/15/19 13:09,509
1/15/19 13:09,511
1/15/19 13:09,507
1/15/19 13:09,510
1/15/19 13:09,508
1/15/19 13:09,506
1/15/19 13:09,508
1/15/19 13:09,506
1/15/19 13:09,510
1/15/19 13:09,508
1/15/19 13:09,509
1/15/19 13:09,508
1/15/19 13:09,507
1/15/19 13:09,509
1/15/19 13:09,507
1/15/19 13:09,509
1/15/19 13:09,511
1/15/19 13:09,507
1/15/19 13:09,509
1/15/19 13:09,507
1/15/19 13:09,509
1/15/19 13:09,509
1/15/19 13:09,507
1/15/19 13:09,507
1/15/19 13:09,507
1/15/19 13:09,508
1/15/19 13:09,506
1/15/19 13:09,506
1/15/19 13:09,507
1/15/19 13:09,506
1/15/19 13:09,508
1/15/19 13:09,509
1/15/19 13:09,507
1/15/19 13:09,508
1/15/19 13:09,506
1/15/19 13:09,520
1/15/19 13:09,505
1/15/19 13:09,502
1/15/19 13:09,508
1/15/19 13:09,505
1/15/19 13:09,508
1/15/19 13:09,508
1/15/19 13:09,506
1/15/19 13:09,508
1/15/19 13:09,502
1/15/19 13:09,508
1/15/19 13:09,507
1/15/19 13:09,506
1/15/19 13:09,510
1/15/19 13:09,506
1/15/19 13:09,510
1/15/19 13:09,509
1/15/19 13:09,508
1/15/19 13:09,511
1/15/19 13:09,507
1/15/19 13:09,508
1/15/19 13:09,509
1/15/19 13:09,507
1/15/19 13:09,511
1/15/19 13:09,506
1/15/19 13:09,510
1/15/19 13:09,508
1/15/19 13:09,510
1/15/19 13:09,508
1/15/19 13:09,506
1/15/19 13:09,508
1/15/19 13:09,507
1/15/19 13:09,506
1/15/19 13:09,508
1/15/19 13:09,507
1/15/19 13:09,510
1/15/19 13:09,508
1/15/19 13:09,508
1/15/19 13:09,511
1/15/19 13:09,507
1/15/19 13:09,508
1/15/19 13:09,507
1/15/19 13:09,508
1/15/19 13:09,508
1/15/19 13:09,505
1/15/19 13:09,506
1/15/19 13:09,507
1/15/19 13:09,508
1/15/19 13:09,507
1/15/19 13:09,506
1/15/19 13:09,510
1/15/19 13:09,515
1/15/19 13:09,507
1/15/19 13:09,504
1/15/19 13:09,503
1/15/19 13:09,506
1/15/19 13:09,505
1/15/19 13:09,506
1/15/19 13:09,505
1/15/19 13:09,505
1/15/19 13:09,509
1/15/19 13:09,506
1/15/19 13:09,509
1/15/19 13:09,509
1/15/19 13:09,507
1/15/19 13:09,510
1/15/19 13:09,508
1/15/19 13:09,509
1/15/19 13:09,509
1/15/19 13:09,507
1/15/19 13:09,513
1/15/19 13:09,508
1/15/19 13:09,508
1/15/19 13:09,509
1/15/19 13:09,507
1/15/19 13:09,509
1/15/19 13:09,507
1/15/19 13:09,508
1/15/19 13:09,509
1/15/19 13:09,505
1/15/19 13:09,508
1/15/19 13:09,505
1/15/19 13:09,508
1/15/19 13:09,509
1/15/19 13:09,505
1/15/19 13:09,509
1/15/19 13:09,507
1/15/19 13:09,507
1/15/19 13:09,509
1/15/19 13:09,508
1/15/19 13:09,511
1/15/19 13:09,506
1/15/19 13:09,509
1/15/19 13:09,509
1/15/19 13:09,506
1/15/19 13:09,510
1/15/19 13:09,505
1/15/19 13:09,509
1/15/19 13:09,508
1/15/19 13:09,507
1/15/19 13:09,508
1/15/19 13:09,506
1/15/19 13:09,520
1/15/19 13:09,503
1/15/19 13:09,502
1/15/19 13:09,506
1/15/19 13:09,506
1/15/19 13:09,507
1/15/19 13:09,507
1/15/19 13:09,505
1/15/19 13:09,507
1/15/19 13:09,504
1/15/19 13:09,507
1/15/19 13:09,505
1/15/19 13:09,506
1/15/19 13:09,509
1/15/19 13:09,506
1/15/19 13:09,510
1/15/19 13:09,508
1/15/19 13:09,509
1/15/19 13:09,509
1/15/19 13:09,508
1/15/19 13:09,510
1/15/19 13:09,510
1/15/19 13:09,507
1/15/19 13:09,510
1/15/19 13:09,507
1/15/19 13:09,509
1/15/19 13:09,508
1/15/19 13:09,508
1/15/19 13:09,510
1/15/19 13:09,504
1/15/19 13:09,509
1/15/19 13:09,507
1/15/19 13:09,507
1/15/19 13:09,509
1/15/19 13:09,507
1/15/19 13:09,509
1/15/19 13:09,507
1/15/19 13:09,508
1/15/19 13:09,509
1/15/19 13:09,506
1/15/19 13:09,509
1/15/19 13:09,506
1/15/19 13:09,507
1/15/19 13:09,509
1/15/19 13:09,506
1/15/19 13:09,509
1/15/19 13:09,507
1/15/19 13:09,507
1/15/19 13:09,510
1/15/19 13:09,507
1/15/19 13:09,512
1/15/19 13:09,520
1/15/19 13:09,501
1/15/19 13:09,504
1/15/19 13:09,505
1/15/19 13:09,509
1/15/19 13:09,504
1/15/19 13:09,505
1/15/19 13:09,506
1/15/19 13:09,504
1/15/19 13:09,508
1/15/19 13:09,506
1/15/19 13:09,507
1/15/19 13:18,508
1/15/19 13:18,508
1/15/19 13:18,508
1/15/19 13:18,509
1/15/19 13:18,508
1/15/19 13:18,507
1/15/19 13:18,508
1/15/19 13:18,507
1/15/19 13:18,509
1/15/19 13:18,508
1/15/19 13:18,508
1/15/19 13:18,508
1/15/19 13:18,508
1/15/19 13:18,507
1/15/19 13:18,507
1/15/19 13:18,507
1/15/19 13:18,518
1/15/19 13:18,511
1/15/19 13:18,505
1/15/19 13:18,505
1/15/19 13:18,506
1/15/19 13:18,509
1/15/19 13:18,506
1/15/19 13:18,505
1/15/19 13:18,503
1/15/19 13:18,505
1/15/19 13:18,504
1/15/19 13:18,506
1/15/19 13:18,506
1/15/19 13:18,506
1/15/19 13:18,508
1/15/19 13:18,510
1/15/19 13:18,510
1/15/19 13:18,508
1/15/19 13:18,509
1/15/19 13:18,510
1/15/19 13:18,510
1/15/19 13:18,510
1/15/19 13:18,511
1/15/19 13:18,509
1/15/19 13:18,507
1/15/19 13:18,508
1/15/19 13:18,508
1/15/19 13:18,507
1/15/19 13:18,508
1/15/19 13:18,509
1/15/19 13:18,508
1/15/19 13:18,507
1/15/19 13:18,507
1/15/19 13:18,509
1/15/19 13:18,507
1/15/19 13:18,507
1/15/19 13:18,507
1/15/19 13:18,507
1/15/19 13:18,506
1/15/19 13:18,507
1/15/19 13:18,508
1/15/19 13:18,508
1/15/19 13:18,509
1/15/19 13:18,508
1/15/19 13:18,508
1/15/19 13:18,508
1/15/19 13:18,507
1/15/19 13:18,508
1/15/19 13:18,508
1/15/19 13:18,507
1/15/19 13:18,514
1/15/19 13:18,516
1/15/19 13:18,503
1/15/19 13:18,505
1/15/19 13:18,507
1/15/19 13:18,506
1/15/19 13:18,506
1/15/19 13:18,505
1/15/19 13:18,505
1/15/19 13:18,504
1/15/19 13:18,505
1/15/19 13:18,505
1/15/19 13:18,507
1/15/19 13:18,508
1/15/19 13:18,507
1/15/19 13:18,509
1/15/19 13:18,506
1/15/19 13:18,509
1/15/19 13:18,508
1/15/19 13:18,509
1/15/19 13:18,508
1/15/19 13:18,509
1/15/19 13:18,508
1/15/19 13:18,509
1/15/19 13:18,509
1/15/19 13:18,509
1/15/19 13:18,508
1/15/19 13:18,507
1/15/19 13:18,508
1/15/19 13:18,507
1/15/19 13:18,508
1/15/19 13:18,508
1/15/19 13:18,507
1/15/19 13:18,507
1/15/19 13:18,509
1/15/19 13:18,508
1/15/19 13:18,506
1/15/19 13:18,508
1/15/19 13:18,508
1/15/19 13:18,507
1/15/19 13:18,507
1/15/19 13:18,507
1/15/19 13:18,507
1/15/19 13:18,504
1/15/19 13:18,507
1/15/19 13:18,509
1/15/19 13:18,509
1/15/19 13:18,508
1/15/19 13:18,509
1/15/19 13:18,508
1/15/19 13:18,507
1/15/19 13:18,517
1/15/19 13:18,511
1/15/19 13:18,503
1/15/19 13:18,505
1/15/19 13:18,505
1/15/19 13:18,505
1/15/19 13:18,507
1/15/19 13:18,507
1/15/19 13:18,506
1/15/19 13:18,504
1/15/19 13:18,506
1/15/19 13:18,507
1/15/19 13:18,505
1/15/19 13:18,507
1/15/19 13:18,507
1/15/19 13:18,508
1/15/19 13:18,508
1/15/19 13:18,510
1/15/19 13:18,509
1/15/19 13:18,510
1/15/19 13:18,509
1/15/19 13:18,510
1/15/19 13:18,508
1/15/19 13:18,508
1/15/19 13:18,509
1/15/19 13:18,507
1/15/19 13:18,509
1/15/19 13:18,509
1/15/19 13:18,509
1/15/19 13:18,508
1/15/19 13:18,508
1/15/19 13:18,507
1/15/19 13:18,508
1/15/19 13:18,509
1/15/19 13:18,507
1/15/19 13:18,508
1/15/19 13:18,507
1/15/19 13:18,505
1/15/19 13:18,507
1/15/19 13:18,507
1/15/19 13:18,508
1/15/19 13:18,507
1/15/19 13:18,507
1/15/19 13:18,507
1/15/19 13:18,507
1/15/19 13:18,507
1/15/19 13:18,507
1/15/19 13:18,509
1/15/19 13:18,508
1/15/19 13:18,509
1/15/19 13:18,509
1/15/19 13:18,520
1/15/19 13:18,505
1/15/19 13:18,505
1/15/19 13:18,505
1/15/19 13:18,508
1/15/19 13:18,506
1/15/19 13:18,507
1/15/19 13:18,505
1/15/19 13:18,506
1/15/19 13:18,507
1/15/19 13:18,505
1/15/19 13:18,507
1/15/19 13:18,507
1/15/19 13:18,505
1/15/19 13:18,507
1/15/19 13:18,508
1/15/19 13:18,509
1/15/19 13:18,507
1/15/19 13:18,509
1/15/19 13:18,509
1/15/19 13:18,508
1/15/19 13:18,508
1/15/19 13:18,508
1/15/19 13:18,510
1/15/19 13:18,510
1/15/19 13:18,508
1/15/19 13:18,508
1/15/19 13:18,508
1/15/19 13:18,506
1/15/19 13:18,509
1/15/19 13:18,508
1/15/19 13:18,507
1/15/19 13:18,508
1/15/19 13:18,507
1/15/19 13:18,507
1/15/19 13:18,507
1/15/19 13:18,506
1/15/19 13:18,508
1/15/19 13:18,509
1/15/19 13:18,507
1/15/19 13:18,508
1/15/19 13:18,506
1/15/19 13:18,507
1/15/19 13:18,508
1/15/19 13:18,508
1/15/19 13:18,508
1/15/19 13:18,506
1/15/19 13:18,508
1/15/19 13:18,508
1/15/19 13:18,507
1/15/19 13:18,511
1/15/19 13:18,520
1/15/19 13:18,502
1/15/19 13:18,504
1/15/19 13:18,506
1/15/19 13:18,508
1/15/19 13:18,508
1/15/19 13:18,505
1/15/19 13:18,507
1/15/19 13:18,507
1/15/19 13:18,506
1/15/19 13:18,506
1/15/19 13:18,507
1/15/19 13:18,506
1/15/19 13:18,507
1/15/19 13:18,507
1/15/19 13:18,509
1/15/19 13:18,510
1/15/19 13:18,507
1/15/19 13:18,509
1/15/19 13:18,508
1/15/19 13:18,508
1/15/19 13:18,508
1/15/19 13:18,508
1/15/19 13:18,508
1/15/19 13:18,507
1/15/19 13:18,507
1/15/19 13:18,509
1/15/19 13:18,509
1/15/19 13:18,508
1/15/19 13:18,508
1/15/19 13:18,508
1/15/19 13:18,507
1/15/19 13:18,506
1/15/19 13:18,507
1/15/19 13:18,509
1/15/19 13:18,509
1/15/19 13:18,507
1/15/19 13:18,506
1/15/19 13:18,509
1/15/19 13:18,508
1/15/19 13:18,510
1/15/19 13:18,508
1/15/19 13:18,506
1/15/19 13:18,507
1/15/19 13:18,507
1/15/19 13:18,507
1/15/19 13:18,505
1/15/19 13:18,507
1/15/19 13:18,508
1/15/19 13:18,507
1/15/19 13:18,515
1/15/19 13:18,515
1/15/19 13:18,502
1/15/19 13:18,506
1/15/19 13:18,507
1/15/19 13:18,507
1/15/19 13:18,506
1/15/19 13:18,507
1/15/19 13:18,507
1/15/19 13:18,506
1/15/19 13:18,507
1/15/19 13:18,506
1/15/19 13:18,506
1/15/19 13:18,508
1/15/19 13:18,507
1/15/19 13:18,509
1/15/19 13:18,510
1/15/19 13:18,510
1/15/19 13:18,509
1/15/19 13:18,508
1/15/19 13:18,508
1/15/19 13:18,507
1/15/19 13:18,508
1/15/19 13:18,509
1/15/19 13:18,509
1/15/19 13:18,508
1/15/19 13:18,508
1/15/19 13:18,507
1/15/19 13:18,507
1/15/19 13:18,507
1/15/19 13:18,509
1/15/19 13:18,507
1/15/19 13:18,508
1/15/19 13:18,508
1/15/19 13:18,509
1/15/19 13:18,508
1/15/19 13:18,507
1/15/19 13:18,506
1/15/19 13:18,509
1/15/19 13:18,507
1/15/19 13:18,507
1/15/19 13:18,507
1/15/19 13:18,507
1/15/19 13:18,508
1/15/19 13:18,508
1/15/19 13:18,508
1/15/19 13:18,507
1/15/19 13:18,509
1/15/19 13:18,507
1/15/19 13:18,507
1/15/19 13:18,508
1/15/19 13:18,517
1/15/19 13:18,509
1/15/19 13:18,502
1/15/19 13:18,504
1/15/19 13:18,505
1/15/19 13:18,506
1/15/19 13:18,508
1/15/19 13:18,506
1/15/19 13:18,506
1/15/19 13:18,507
1/15/19 13:18,505
1/15/19 13:18,506
1/15/19 13:18,508
1/15/19 13:18,507
1/15/19 13:18,508
1/15/19 13:18,508
1/15/19 13:18,509
1/15/19 13:18,509
1/15/19 13:18,509
1/15/19 13:18,511
1/15/19 13:18,507
1/15/19 13:18,510
1/15/19 13:18,509
1/15/19 13:18,508
1/15/19 13:18,508
1/15/19 13:18,506
1/15/19 13:18,506
1/15/19 13:18,508
1/15/19 13:18,508
1/15/19 13:18,507
1/15/19 13:18,507
1/15/19 13:18,508
1/15/19 13:18,507
1/15/19 13:18,506
1/15/19 13:18,508
1/15/19 13:18,509
1/15/19 13:18,506
1/15/19 13:18,509
1/15/19 13:18,507
1/15/19 13:18,508
1/15/19 13:18,508
1/15/19 13:18,509
1/15/19 13:18,505
1/15/19 13:18,506
1/15/19 13:18,509
1/15/19 13:18,506
1/15/19 13:18,508
1/15/19 13:18,508
1/15/19 13:18,508
1/15/19 13:18,508
1/15/19 13:18,508
1/15/19 13:18,515
1/15/19 13:18,512
1/15/19 13:18,501
1/15/19 13:18,504
1/15/19 13:18,507
1/15/19 13:18,505
1/15/19 13:18,505
1/15/19 13:18,507
1/15/19 13:18,504
1/15/19 13:18,508
1/15/19 13:18,507
1/15/19 13:18,506
1/15/19 13:18,505
1/15/19 13:18,509
1/15/19 13:18,508
1/15/19 13:18,508
1/15/19 13:18,509
1/15/19 13:18,507
1/15/19 13:18,509
1/15/19 13:18,509
1/15/19 13:18,508
1/15/19 13:18,507
1/15/19 13:18,508
1/15/19 13:18,510
1/15/19 13:18,509
1/15/19 13:18,509
1/15/19 13:18,508
1/15/19 13:18,507
1/15/19 13:18,507
1/15/19 13:18,508
1/15/19 13:18,508
1/15/19 13:18,508
1/15/19 13:18,508
1/15/19 13:18,509
1/15/19 13:18,508
1/15/19 13:18,507
1/15/19 13:18,508
1/15/19 13:18,507
1/15/19 13:18,508
1/15/19 13:18,508
1/15/19 13:18,508
1/15/19 13:18,508
1/15/19 13:18,508
1/15/19 13:18,509
1/15/19 13:18,508
1/15/19 13:18,507
1/15/19 13:18,509
1/15/19 13:18,506
1/15/19 13:18,507
1/15/19 13:18,508
1/15/19 13:18,508
1/15/19 13:18,510
1/15/19 13:18,520
1/15/19 13:18,502
1/15/19 13:18,503
1/15/19 13:18,506
1/15/19 13:18,507
1/15/19 13:18,505
1/15/19 13:18,506
1/15/19 13:18,505
1/15/19 13:18,506
1/15/19 13:18,505
1/15/19 13:18,505
1/15/19 13:18,509
1/15/19 13:18,507
1/15/19 13:18,508
1/15/19 13:18,507
1/15/19 13:18,509
1/15/19 13:18,508
1/15/19 13:18,507
1/15/19 13:18,509
1/15/19 13:18,509
1/15/19 13:18,509
1/15/19 13:18,509
1/15/19 13:18,510
1/15/19 13:18,509
1/15/19 13:18,511
1/15/19 13:18,508
1/15/19 13:18,509
1/15/19 13:18,507
1/15/19 13:18,507
1/15/19 13:18,507
1/15/19 13:18,507
1/15/19 13:18,508
1/15/19 13:18,507
1/15/19 13:18,507
1/15/19 13:18,507
1/15/19 13:18,508
1/15/19 13:18,507
1/15/19 13:18,508
1/15/19 13:18,508
1/15/19 13:18,506
1/15/19 13:18,508
1/15/19 13:18,509
1/15/19 13:18,507
1/15/19 13:18,508
1/15/19 13:18,508
1/15/19 13:18,507
1/15/19 13:18,507
1/15/19 13:18,507
1/15/19 13:18,508
1/15/19 13:18,509
1/15/19 13:18,519
1/15/19 13:18,512
1/15/19 13:18,504
1/15/19 13:18,503
1/15/19 13:18,507
1/15/19 13:18,506
1/15/19 13:18,506
1/15/19 13:18,505
1/15/19 13:18,507
1/15/19 13:18,506
1/15/19 13:18,506
1/15/19 13:18,505
1/15/19 13:18,506
1/15/19 13:18,507
1/15/19 13:18,507
1/15/19 13:18,508
1/15/19 13:18,508
1/15/19 13:18,508
1/15/19 13:18,510
1/15/19 13:18,507
1/15/19 13:18,510
1/15/19 13:18,508
1/15/19 13:18,509
1/15/19 13:18,509
1/15/19 13:18,508
1/15/19 13:18,507
1/15/19 13:18,508
1/15/19 13:18,510
1/15/19 13:18,509
1/15/19 13:18,509
1/15/19 13:18,506
1/15/19 13:18,507
1/15/19 13:18,509
1/15/19 13:18,507
1/15/19 13:18,507
1/15/19 13:18,506
1/15/19 13:18,508
1/15/19 13:18,507
1/15/19 13:18,509
1/15/19 13:18,507
1/15/19 13:18,506
1/15/19 13:18,507
1/15/19 13:18,508
1/15/19 13:18,508
1/15/19 13:18,509
1/15/19 13:18,508
1/15/19 13:18,506
1/15/19 13:18,509
1/15/19 13:18,507
1/15/19 13:18,507
1/15/19 13:18,508
1/15/19 13:18,520
1/15/19 13:18,508
1/15/19 13:18,503
1/15/19 13:18,504
1/15/19 13:18,506
1/15/19 13:18,505
1/15/19 13:18,506
1/15/19 13:18,506
1/15/19 13:18,506
1/15/19 13:18,505
1/15/19 13:18,505
1/15/19 13:18,508
1/15/19 13:18,509
1/15/19 13:18,507
1/15/19 13:18,508
1/15/19 13:18,507
1/15/19 13:18,508
1/15/19 13:18,508
1/15/19 13:18,508
1/15/19 13:18,509
1/15/19 13:18,509
1/15/19 13:18,508
1/15/19 13:18,508
1/15/19 13:18,508
1/15/19 13:18,510
1/15/19 13:18,509
1/15/19 13:18,508
1/15/19 13:18,507
1/15/19 13:18,509
1/15/19 13:18,507
1/15/19 13:18,507
1/15/19 13:18,508
1/15/19 13:18,510
1/15/19 13:18,507
1/15/19 13:18,508
1/15/19 13:18,506
1/15/19 13:18,508
1/15/19 13:18,507
1/15/19 13:18,506
1/15/19 13:18,507
1/15/19 13:18,508
1/15/19 13:18,507
1/15/19 13:18,506
1/15/19 13:18,507
1/15/19 13:18,508
1/15/19 13:18,507
1/15/19 13:18,508
1/15/19 13:18,509
1/15/19 13:18,507
1/15/19 13:18,507
1/15/19 13:18,508
1/15/19 13:18,521
1/15/19 13:18,504
1/15/19 13:18,503
1/15/19 13:18,505
1/15/19 13:18,506
1/15/19 13:18,506
1/15/19 13:18,505
1/15/19 13:18,504
1/15/19 13:18,504
1/15/19 13:18,508
1/15/19 13:18,508
1/15/19 13:18,507
1/15/19 13:18,506
1/15/19 13:18,508
1/15/19 13:18,506
1/15/19 13:18,508
1/15/19 13:18,507
1/15/19 13:18,508
1/15/19 13:18,508
1/15/19 13:18,510
1/15/19 13:18,510
1/15/19 13:18,511
1/15/19 13:18,508
1/15/19 13:18,509
1/15/19 13:18,507
1/15/19 13:27,507
1/15/19 13:27,507
1/15/19 13:27,507
1/15/19 13:27,508
1/15/19 13:27,507
1/15/19 13:27,508
1/15/19 13:27,507
1/15/19 13:27,517
1/15/19 13:27,509
1/15/19 13:27,505
1/15/19 13:27,504
1/15/19 13:27,507
1/15/19 13:27,508
1/15/19 13:27,507
1/15/19 13:27,504
1/15/19 13:27,506
1/15/19 13:27,504
1/15/19 13:27,508
1/15/19 13:27,507
1/15/19 13:27,509
1/15/19 13:27,507
1/15/19 13:27,509
1/15/19 13:27,509
1/15/19 13:27,512
1/15/19 13:27,509
1/15/19 13:27,510
1/15/19 13:27,508
1/15/19 13:27,510
1/15/19 13:27,508
1/15/19 13:27,507
1/15/19 13:27,507
1/15/19 13:27,507
1/15/19 13:27,508
1/15/19 13:27,508
1/15/19 13:27,507
1/15/19 13:27,507
1/15/19 13:27,509
1/15/19 13:27,508
1/15/19 13:27,507
1/15/19 13:27,506
1/15/19 13:27,508
1/15/19 13:27,510
1/15/19 13:27,504
1/15/19 13:27,508
1/15/19 13:27,507
1/15/19 13:27,509
1/15/19 13:27,509
1/15/19 13:27,509
1/15/19 13:27,507
1/15/19 13:27,510
1/15/19 13:27,507
1/15/19 13:27,508
1/15/19 13:27,506
1/15/19 13:27,507
1/15/19 13:27,508
1/15/19 13:27,505
1/15/19 13:27,509
1/15/19 13:27,518
1/15/19 13:27,502
1/15/19 13:27,503
1/15/19 13:27,505
1/15/19 13:27,507
1/15/19 13:27,506
1/15/19 13:27,505
1/15/19 13:27,505
1/15/19 13:27,504
1/15/19 13:27,505
1/15/19 13:27,506
1/15/19 13:27,506
1/15/19 13:27,508
1/15/19 13:27,508
1/15/19 13:27,508
1/15/19 13:27,509
1/15/19 13:27,508
1/15/19 13:27,511
1/15/19 13:27,509
1/15/19 13:27,509
1/15/19 13:27,510
1/15/19 13:27,509
1/15/19 13:27,510
1/15/19 13:27,508
1/15/19 13:27,507
1/15/19 13:27,508
1/15/19 13:27,507
1/15/19 13:27,508
1/15/19 13:27,508
1/15/19 13:27,506
1/15/19 13:27,506
1/15/19 13:27,507
1/15/19 13:27,508
1/15/19 13:27,509
1/15/19 13:27,509
1/15/19 13:27,508
1/15/19 13:27,508
1/15/19 13:27,508
1/15/19 13:27,509
1/15/19 13:27,510
1/15/19 13:27,508
1/15/19 13:27,508
1/15/19 13:27,506
1/15/19 13:27,507
1/15/19 13:27,508
1/15/19 13:27,509
1/15/19 13:27,506
1/15/19 13:27,505
1/15/19 13:27,506
1/15/19 13:27,508
1/15/19 13:27,513
1/15/19 13:27,521
1/15/19 13:27,502
1/15/19 13:27,504
1/15/19 13:27,506
1/15/19 13:27,506
1/15/19 13:27,507
1/15/19 13:27,504
1/15/19 13:27,505
1/15/19 13:27,507
1/15/19 13:27,504
1/15/19 13:27,507
1/15/19 13:27,507
1/15/19 13:27,506
1/15/19 13:27,507
1/15/19 13:27,510
1/15/19 13:27,509
1/15/19 13:27,508
1/15/19 13:27,510
1/15/19 13:27,510
1/15/19 13:27,510
1/15/19 13:27,508
1/15/19 13:27,509
1/15/19 13:27,507
1/15/19 13:27,508
1/15/19 13:27,508
1/15/19 13:27,509
1/15/19 13:27,509
1/15/19 13:27,508
1/15/19 13:27,508
1/15/19 13:27,507
1/15/19 13:27,507
1/15/19 13:27,507
1/15/19 13:27,507
1/15/19 13:27,508
1/15/19 13:27,507
1/15/19 13:27,507
1/15/19 13:27,507
1/15/19 13:27,509
1/15/19 13:27,508
1/15/19 13:27,507
1/15/19 13:27,506
1/15/19 13:27,507
1/15/19 13:27,509
1/15/19 13:27,511
1/15/19 13:27,504
1/15/19 13:27,508
1/15/19 13:27,510
1/15/19 13:27,509
1/15/19 13:27,510
1/15/19 13:27,508
1/15/19 13:27,521
1/15/19 13:27,506
1/15/19 13:27,503
1/15/19 13:27,505
1/15/19 13:27,505
1/15/19 13:27,506
1/15/19 13:27,505
1/15/19 13:27,504
1/15/19 13:27,505
1/15/19 13:27,505
1/15/19 13:27,506
1/15/19 13:27,506
1/15/19 13:27,508
1/15/19 13:27,507
1/15/19 13:27,508
1/15/19 13:27,508
1/15/19 13:27,508
1/15/19 13:27,510
1/15/19 13:27,509
1/15/19 13:27,508
1/15/19 13:27,508
1/15/19 13:27,510
1/15/19 13:27,506
1/15/19 13:27,508
1/15/19 13:27,509
1/15/19 13:27,509
1/15/19 13:27,508
1/15/19 13:27,508
1/15/19 13:27,507
1/15/19 13:27,508
1/15/19 13:27,508
1/15/19 13:27,508
1/15/19 13:27,510
1/15/19 13:27,507
1/15/19 13:27,504
1/15/19 13:27,506
1/15/19 13:27,506
1/15/19 13:27,506
1/15/19 13:27,510
1/15/19 13:27,506
1/15/19 13:27,508
1/15/19 13:27,506
1/15/19 13:27,508
1/15/19 13:27,507
1/15/19 13:27,509
1/15/19 13:27,510
1/15/19 13:27,507
1/15/19 13:27,506
1/15/19 13:27,508
1/15/19 13:27,507
1/15/19 13:27,509
1/15/19 13:27,518
1/15/19 13:27,510
1/15/19 13:27,504
1/15/19 13:27,502
1/15/19 13:27,506
1/15/19 13:27,507
1/15/19 13:27,505
1/15/19 13:27,506
1/15/19 13:27,505
1/15/19 13:27,506
1/15/19 13:27,507
1/15/19 13:27,506
1/15/19 13:27,506
1/15/19 13:27,508
1/15/19 13:27,507
1/15/19 13:27,508
1/15/19 13:27,507
1/15/19 13:27,509
1/15/19 13:27,509
1/15/19 13:27,509
1/15/19 13:27,509
1/15/19 13:27,511
1/15/19 13:27,508
1/15/19 13:27,509
1/15/19 13:27,509
1/15/19 13:27,508
1/15/19 13:27,510
1/15/19 13:27,508
1/15/19 13:27,508
1/15/19 13:27,507
1/15/19 13:27,508
1/15/19 13:27,506
1/15/19 13:27,509
1/15/19 13:27,510
1/15/19 13:27,506
1/15/19 13:27,508
1/15/19 13:27,507
1/15/19 13:27,506
1/15/19 13:27,506
1/15/19 13:27,507
1/15/19 13:27,508
1/15/19 13:27,507
1/15/19 13:27,506
1/15/19 13:27,507
1/15/19 13:27,508
1/15/19 13:27,505
1/15/19 13:27,509
1/15/19 13:27,509
1/15/19 13:27,509
1/15/19 13:27,510
1/15/19 13:27,510
1/15/19 13:27,522
1/15/19 13:27,502
1/15/19 13:27,503
1/15/19 13:27,506
1/15/19 13:27,508
1/15/19 13:27,507
1/15/19 13:27,507
1/15/19 13:27,505
1/15/19 13:27,506
1/15/19 13:27,505
1/15/19 13:27,506
1/15/19 13:27,506
1/15/19 13:27,507
1/15/19 13:27,508
1/15/19 13:27,508
1/15/19 13:27,508
1/15/19 13:27,507
1/15/19 13:27,511
1/15/19 13:27,509
1/15/19 13:27,508
1/15/19 13:27,509
1/15/19 13:27,509
1/15/19 13:27,509
1/15/19 13:27,510
1/15/19 13:27,507
1/15/19 13:27,510
1/15/19 13:27,509
1/15/19 13:27,510
1/15/19 13:27,509
1/15/19 13:27,507
1/15/19 13:27,508
1/15/19 13:27,506
1/15/19 13:27,508
1/15/19 13:27,508
1/15/19 13:27,507
1/15/19 13:27,506
1/15/19 13:27,508
1/15/19 13:27,505
1/15/19 13:27,507
1/15/19 13:27,507
1/15/19 13:27,509
1/15/19 13:27,507
1/15/19 13:27,508
1/15/19 13:27,507
1/15/19 13:27,507
1/15/19 13:27,506
1/15/19 13:27,508
1/15/19 13:27,508
1/15/19 13:27,505
1/15/19 13:27,507
1/15/19 13:27,520
1/15/19 13:27,510
1/15/19 13:27,503
1/15/19 13:27,505
1/15/19 13:27,507
1/15/19 13:27,505
1/15/19 13:27,508
1/15/19 13:27,506
1/15/19 13:27,507
1/15/19 13:27,504
1/15/19 13:27,506
1/15/19 13:27,506
1/15/19 13:27,506
1/15/19 13:27,506
1/15/19 13:27,506
1/15/19 13:27,508
1/15/19 13:27,508
1/15/19 13:27,509
1/15/19 13:27,509
1/15/19 13:27,508
1/15/19 13:27,509
1/15/19 13:27,508
1/15/19 13:27,510
1/15/19 13:27,507
1/15/19 13:27,509
1/15/19 13:27,509
1/15/19 13:27,508
1/15/19 13:27,507
1/15/19 13:27,508
1/15/19 13:27,508
1/15/19 13:27,509
1/15/19 13:27,509
1/15/19 13:27,510
1/15/19 13:27,509
1/15/19 13:27,507
1/15/19 13:27,508
1/15/19 13:27,508
1/15/19 13:27,507
1/15/19 13:27,507
1/15/19 13:27,509
1/15/19 13:27,506
1/15/19 13:27,506
1/15/19 13:27,507
1/15/19 13:27,507
1/15/19 13:27,507
1/15/19 13:27,508
1/15/19 13:27,508
1/15/19 13:27,507
1/15/19 13:27,507
1/15/19 13:27,508
1/15/19 13:27,509
1/15/19 13:27,515
1/15/19 13:27,516
1/15/19 13:27,503
1/15/19 13:27,503
1/15/19 13:27,507
1/15/19 13:27,506
1/15/19 13:27,506
1/15/19 13:27,507
1/15/19 13:27,505
1/15/19 13:27,507
1/15/19 13:27,506
1/15/19 13:27,507
1/15/19 13:27,506
1/15/19 13:27,508
1/15/19 13:27,507
1/15/19 13:27,508
1/15/19 13:27,508
1/15/19 13:27,510
1/15/19 13:27,508
1/15/19 13:27,509
1/15/19 13:27,508
1/15/19 13:27,507
1/15/19 13:27,508
1/15/19 13:27,507
1/15/19 13:27,509
1/15/19 13:27,509
1/15/19 13:27,508
1/15/19 13:27,508
1/15/19 13:27,508
1/15/19 13:27,506
1/15/19 13:27,510
1/15/19 13:27,509
1/15/19 13:27,509
1/15/19 13:27,509
1/15/19 13:27,509
1/15/19 13:27,509
1/15/19 13:27,509
1/15/19 13:27,508
1/15/19 13:27,507
1/15/19 13:27,507
1/15/19 13:27,505
1/15/19 13:27,504
1/15/19 13:27,505
1/15/19 13:27,507
1/15/19 13:27,508
1/15/19 13:27,508
1/15/19 13:27,506
1/15/19 13:27,509
1/15/19 13:27,508
1/15/19 13:27,505
1/15/19 13:27,506
1/15/19 13:27,521
1/15/19 13:27,506
1/15/19 13:27,505
1/15/19 13:27,506
1/15/19 13:27,508
1/15/19 13:27,505
1/15/19 13:27,504
1/15/19 13:27,507
1/15/19 13:27,506
1/15/19 13:27,505
1/15/19 13:27,507
1/15/19 13:27,505
1/15/19 13:27,509
1/15/19 13:27,508
1/15/19 13:27,507
1/15/19 13:27,508
1/15/19 13:27,507
1/15/19 13:27,508
1/15/19 13:27,507
1/15/19 13:27,509
1/15/19 13:27,508
1/15/19 13:27,508
1/15/19 13:27,507
1/15/19 13:27,507
1/15/19 13:27,507
1/15/19 13:27,508
1/15/19 13:27,505
1/15/19 13:27,509
1/15/19 13:27,509
1/15/19 13:27,509
1/15/19 13:27,509
1/15/19 13:27,509
1/15/19 13:27,511
1/15/19 13:27,505
1/15/19 13:27,508
1/15/19 13:27,509
1/15/19 13:27,509
1/15/19 13:27,509
1/15/19 13:27,508
1/15/19 13:27,505
1/15/19 13:27,508
1/15/19 13:27,508
1/15/19 13:27,507
1/15/19 13:27,507
1/15/19 13:27,506
1/15/19 13:27,508
1/15/19 13:27,504
1/15/19 13:27,506
1/15/19 13:27,507
1/15/19 13:27,504
1/15/19 13:27,519
1/15/19 13:27,506
1/15/19 13:27,508
1/15/19 13:27,506
1/15/19 13:27,508
1/15/19 13:27,506
1/15/19 13:27,507
1/15/19 13:27,506
1/15/19 13:27,507
1/15/19 13:27,499
1/15/19 13:27,506
1/15/19 13:27,508
1/15/19 13:27,509
1/15/19 13:27,510
1/15/19 13:27,509
1/15/19 13:27,510
1/15/19 13:27,507
1/15/19 13:27,509
1/15/19 13:27,509
1/15/19 13:27,508
1/15/19 13:27,509
1/15/19 13:27,507
1/15/19 13:27,508
1/15/19 13:27,509
1/15/19 13:27,501
1/15/19 13:27,507
1/15/19 13:27,509
1/15/19 13:27,509
1/15/19 13:27,512
1/15/19 13:27,506
1/15/19 13:27,509
1/15/19 13:27,510
1/15/19 13:27,512
1/15/19 13:27,509
1/15/19 13:27,509
1/15/19 13:27,509
1/15/19 13:27,508
1/15/19 13:27,506
1/15/19 13:27,506
1/15/19 13:27,505
1/15/19 13:27,506
1/15/19 13:27,507
1/15/19 13:27,507
1/15/19 13:27,506
1/15/19 13:27,506
1/15/19 13:27,507
1/15/19 13:27,506
1/15/19 13:27,507
1/15/19 13:27,508
1/15/19 13:27,508
1/15/19 13:27,516
1/15/19 13:27,512
1/15/19 13:27,502
1/15/19 13:27,503
1/15/19 13:27,506
1/15/19 13:27,505
1/15/19 13:27,508
1/15/19 13:27,508
1/15/19 13:27,508
1/15/19 13:27,510
1/15/19 13:27,502
1/15/19 13:27,506
1/15/19 13:27,509
1/15/19 13:27,509
1/15/19 13:27,508
1/15/19 13:27,510
1/15/19 13:27,508
1/15/19 13:27,509
1/15/19 13:27,506
1/15/19 13:27,509
1/15/19 13:27,510
1/15/19 13:27,508
1/15/19 13:27,509
1/15/19 13:27,507
1/15/19 13:27,505
1/15/19 13:27,503
1/15/19 13:27,505
1/15/19 13:27,510
1/15/19 13:27,509
1/15/19 13:27,509
1/15/19 13:27,506
1/15/19 13:27,510
1/15/19 13:27,509
1/15/19 13:27,508
1/15/19 13:27,507
1/15/19 13:27,508
1/15/19 13:27,508
1/15/19 13:27,508
1/15/19 13:27,506
1/15/19 13:27,509
1/15/19 13:27,502
1/15/19 13:27,505
1/15/19 13:27,507
1/15/19 13:27,511
1/15/19 13:27,509
1/15/19 13:27,508
1/15/19 13:27,508
1/15/19 13:27,509
1/15/19 13:27,509
1/15/19 13:27,508
1/15/19 13:27,507
1/15/19 13:27,517
1/15/19 13:27,505
1/15/19 13:27,499
1/15/19 13:27,504
1/15/19 13:27,506
1/15/19 13:27,506
1/15/19 13:27,507
1/15/19 13:27,507
1/15/19 13:27,506
1/15/19 13:27,508
1/15/19 13:27,508
1/15/19 13:27,506
1/15/19 13:27,508
1/15/19 13:27,502
1/15/19 13:27,508
1/15/19 13:27,510
1/15/19 13:27,510
1/15/19 13:27,510
1/15/19 13:27,510
1/15/19 13:27,509
1/15/19 13:27,508
1/15/19 13:27,510
1/15/19 13:27,509
1/15/19 13:27,509
1/15/19 13:27,508
1/15/19 13:27,507
1/15/19 13:27,504
1/15/19 13:27,507
1/15/19 13:27,509
1/15/19 13:27,509
1/15/19 13:27,508
1/15/19 13:27,507
1/15/19 13:27,506
1/15/19 13:27,508
1/15/19 13:27,508
1/15/19 13:27,508
1/15/19 13:27,508
1/15/19 13:36,508
1/15/19 13:36,507
1/15/19 13:36,506
1/15/19 13:36,506
1/15/19 13:36,505
1/15/19 13:36,505
1/15/19 13:36,507
1/15/19 13:36,507
1/15/19 13:36,507
1/15/19 13:36,508
1/15/19 13:36,509
1/15/19 13:36,511
1/15/19 13:36,511
1/15/19 13:36,509
1/15/19 13:36,510
1/15/19 13:36,509
1/15/19 13:36,509
1/15/19 13:36,509
1/15/19 13:36,508
1/15/19 13:36,511
1/15/19 13:36,510
1/15/19 13:36,509
1/15/19 13:36,507
1/15/19 13:36,510
1/15/19 13:36,508
1/15/19 13:36,508
1/15/19 13:36,507
1/15/19 13:36,506
1/15/19 13:36,509
1/15/19 13:36,509
1/15/19 13:36,508
1/15/19 13:36,506
1/15/19 13:36,505
1/15/19 13:36,507
1/15/19 13:36,507
1/15/19 13:36,507
1/15/19 13:36,507
1/15/19 13:36,506
1/15/19 13:36,508
1/15/19 13:36,510
1/15/19 13:36,507
1/15/19 13:36,508
1/15/19 13:36,508
1/15/19 13:36,508
1/15/19 13:36,507
1/15/19 13:36,513
1/15/19 13:36,520
1/15/19 13:36,503
1/15/19 13:36,505
1/15/19 13:36,505
1/15/19 13:36,505
1/15/19 13:36,507
1/15/19 13:36,505
1/15/19 13:36,506
1/15/19 13:36,505
1/15/19 13:36,506
1/15/19 13:36,507
1/15/19 13:36,507
1/15/19 13:36,507
1/15/19 13:36,507
1/15/19 13:36,509
1/15/19 13:36,510
1/15/19 13:36,508
1/15/19 13:36,510
1/15/19 13:36,507
1/15/19 13:36,509
1/15/19 13:36,509
1/15/19 13:36,508
1/15/19 13:36,509
1/15/19 13:36,509
1/15/19 13:36,507
1/15/19 13:36,508
1/15/19 13:36,508
1/15/19 13:36,509
1/15/19 13:36,508
1/15/19 13:36,506
1/15/19 13:36,507
1/15/19 13:36,509
1/15/19 13:36,508
1/15/19 13:36,507
1/15/19 13:36,508
1/15/19 13:36,506
1/15/19 13:36,505
1/15/19 13:36,507
1/15/19 13:36,506
1/15/19 13:36,506
1/15/19 13:36,506
1/15/19 13:36,508
1/15/19 13:36,508
1/15/19 13:36,508
1/15/19 13:36,508
1/15/19 13:36,510
1/15/19 13:36,508
1/15/19 13:36,508
1/15/19 13:36,509
1/15/19 13:36,516
1/15/19 13:36,512
1/15/19 13:36,504
1/15/19 13:36,504
1/15/19 13:36,504
1/15/19 13:36,507
1/15/19 13:36,509
1/15/19 13:36,507
1/15/19 13:36,506
1/15/19 13:36,506
1/15/19 13:36,505
1/15/19 13:36,506
1/15/19 13:36,506
1/15/19 13:36,505
1/15/19 13:36,507
1/15/19 13:36,506
1/15/19 13:36,509
1/15/19 13:36,508
1/15/19 13:36,510
1/15/19 13:36,509
1/15/19 13:36,508
1/15/19 13:36,511
1/15/19 13:36,510
1/15/19 13:36,511
1/15/19 13:36,508
1/15/19 13:36,507
1/15/19 13:36,507
1/15/19 13:36,507
1/15/19 13:36,509
1/15/19 13:36,509
1/15/19 13:36,508
1/15/19 13:36,509
1/15/19 13:36,507
1/15/19 13:36,509
1/15/19 13:36,508
1/15/19 13:36,507
1/15/19 13:36,507
1/15/19 13:36,506
1/15/19 13:36,507
1/15/19 13:36,505
1/15/19 13:36,505
1/15/19 13:36,507
1/15/19 13:36,507
1/15/19 13:36,509
1/15/19 13:36,507
1/15/19 13:36,506
1/15/19 13:36,508
1/15/19 13:36,508
1/15/19 13:36,510
1/15/19 13:36,506
1/15/19 13:36,514
1/15/19 13:36,518
1/15/19 13:36,504
1/15/19 13:36,505
1/15/19 13:36,506
1/15/19 13:36,507
1/15/19 13:36,506
1/15/19 13:36,506
1/15/19 13:36,508
1/15/19 13:36,505
1/15/19 13:36,507
1/15/19 13:36,505
1/15/19 13:36,506
1/15/19 13:36,506
1/15/19 13:36,507
1/15/19 13:36,507
1/15/19 13:36,509
1/15/19 13:36,508
1/15/19 13:36,509
1/15/19 13:36,507
1/15/19 13:36,509
1/15/19 13:36,509
1/15/19 13:36,508
1/15/19 13:36,509
1/15/19 13:36,509
1/15/19 13:36,507
1/15/19 13:36,508
1/15/19 13:36,508
1/15/19 13:36,509
1/15/19 13:36,509
1/15/19 13:36,509
1/15/19 13:36,508
1/15/19 13:36,508
1/15/19 13:36,510
1/15/19 13:36,508
1/15/19 13:36,508
1/15/19 13:36,508
1/15/19 13:36,507
1/15/19 13:36,507
1/15/19 13:36,506
1/15/19 13:36,507
1/15/19 13:36,507
1/15/19 13:36,505
1/15/19 13:36,507
1/15/19 13:36,507
1/15/19 13:36,506
1/15/19 13:36,507
1/15/19 13:36,507
1/15/19 13:36,510
1/15/19 13:36,509
1/15/19 13:36,508
1/15/19 13:36,521
1/15/19 13:36,502
1/15/19 13:36,505
1/15/19 13:36,507
1/15/19 13:36,508
1/15/19 13:36,508
1/15/19 13:36,506
1/15/19 13:36,506
1/15/19 13:36,507
1/15/19 13:36,508
1/15/19 13:36,507
1/15/19 13:36,505
1/15/19 13:36,507
1/15/19 13:36,507
1/15/19 13:36,507
1/15/19 13:36,507
1/15/19 13:36,507
1/15/19 13:36,509
1/15/19 13:36,508
1/15/19 13:36,511
1/15/19 13:36,507
1/15/19 13:36,507
1/15/19 13:36,510
1/15/19 13:36,509
1/15/19 13:36,510
1/15/19 13:36,507
1/15/19 13:36,507
1/15/19 13:36,509
1/15/19 13:36,507
1/15/19 13:36,509
1/15/19 13:36,508
1/15/19 13:36,508
1/15/19 13:36,509
1/15/19 13:36,506
1/15/19 13:36,507
1/15/19 13:36,506
1/15/19 13:36,509
1/15/19 13:36,508
1/15/19 13:36,506
1/15/19 13:36,507
1/15/19 13:36,506
1/15/19 13:36,508
1/15/19 13:36,509
1/15/19 13:36,506
1/15/19 13:36,507
1/15/19 13:36,503
1/15/19 13:36,507
1/15/19 13:36,509
1/15/19 13:36,506
1/15/19 13:36,508
1/15/19 13:36,517
1/15/19 13:36,511
1/15/19 13:36,504
1/15/19 13:36,505
1/15/19 13:36,505
1/15/19 13:36,507
1/15/19 13:36,506
1/15/19 13:36,506
1/15/19 13:36,506
1/15/19 13:36,506
1/15/19 13:36,506
1/15/19 13:36,506
1/15/19 13:36,506
1/15/19 13:36,505
1/15/19 13:36,509
1/15/19 13:36,507
1/15/19 13:36,509
1/15/19 13:36,510
1/15/19 13:36,510
1/15/19 13:36,510
1/15/19 13:36,507
1/15/19 13:36,509
1/15/19 13:36,509
1/15/19 13:36,509
1/15/19 13:36,508
1/15/19 13:36,508
1/15/19 13:36,509
1/15/19 13:36,508
1/15/19 13:36,508
1/15/19 13:36,508
1/15/19 13:36,509
1/15/19 13:36,507
1/15/19 13:36,509
1/15/19 13:36,506
1/15/19 13:36,509
1/15/19 13:36,508
1/15/19 13:36,508
1/15/19 13:36,508
1/15/19 13:36,506
1/15/19 13:36,509
1/15/19 13:36,507
1/15/19 13:36,507
1/15/19 13:36,507
1/15/19 13:36,508
1/15/19 13:36,508
1/15/19 13:36,507
1/15/19 13:36,506
1/15/19 13:36,507
1/15/19 13:36,506
1/15/19 13:36,508
1/15/19 13:36,514
1/15/19 13:36,516
1/15/19 13:36,504
1/15/19 13:36,507
1/15/19 13:36,506
1/15/19 13:36,508
1/15/19 13:36,508
1/15/19 13:36,506
1/15/19 13:36,504
1/15/19 13:36,506
1/15/19 13:36,506
1/15/19 13:36,507
1/15/19 13:36,506
1/15/19 13:36,507
1/15/19 13:36,507
1/15/19 13:36,507
1/15/19 13:36,507
1/15/19 13:36,509
1/15/19 13:36,509
1/15/19 13:36,506
1/15/19 13:36,508
1/15/19 13:36,508
1/15/19 13:36,509
1/15/19 13:36,508
1/15/19 13:36,510
1/15/19 13:36,508
1/15/19 13:36,511
1/15/19 13:36,509
1/15/19 13:36,508
1/15/19 13:36,508
1/15/19 13:36,508
1/15/19 13:36,509
1/15/19 13:36,507
1/15/19 13:36,508
1/15/19 13:36,508
1/15/19 13:36,508
1/15/19 13:36,507
1/15/19 13:36,506
1/15/19 13:36,507
1/15/19 13:36,507
1/15/19 13:36,507
1/15/19 13:36,506
1/15/19 13:36,507
1/15/19 13:36,507
1/15/19 13:36,507
1/15/19 13:36,505
1/15/19 13:36,509
1/15/19 13:36,507
1/15/19 13:36,508
1/15/19 13:36,509
1/15/19 13:36,511
1/15/19 13:36,518
1/15/19 13:36,502
1/15/19 13:36,506
1/15/19 13:36,506
1/15/19 13:36,506
1/15/19 13:36,507
1/15/19 13:36,505
1/15/19 13:36,508
1/15/19 13:36,506
1/15/19 13:36,507
1/15/19 13:36,506
1/15/19 13:36,505
1/15/19 13:36,508
1/15/19 13:36,507
1/15/19 13:36,507
1/15/19 13:36,509
1/15/19 13:36,509
1/15/19 13:36,507
1/15/19 13:36,506
1/15/19 13:36,509
1/15/19 13:36,509
1/15/19 13:36,509
1/15/19 13:36,508
1/15/19 13:36,509
1/15/19 13:36,509
1/15/19 13:36,509
1/15/19 13:36,508
1/15/19 13:36,509
1/15/19 13:36,508
1/15/19 13:36,506
1/15/19 13:36,507
1/15/19 13:36,508
1/15/19 13:36,508
1/15/19 13:36,508
1/15/19 13:36,507
1/15/19 13:36,509
1/15/19 13:36,507
1/15/19 13:36,508
1/15/19 13:36,507
1/15/19 13:36,506
1/15/19 13:36,506
1/15/19 13:36,506
1/15/19 13:36,507
1/15/19 13:36,507
1/15/19 13:36,507
1/15/19 13:36,508
1/15/19 13:36,508
1/15/19 13:36,508
1/15/19 13:36,507
1/15/19 13:36,508
1/15/19 13:36,520
1/15/19 13:36,504
1/15/19 13:36,503
1/15/19 13:36,506
1/15/19 13:36,507
1/15/19 13:36,509
1/15/19 13:36,508
1/15/19 13:36,509
1/15/19 13:36,505
1/15/19 13:36,506
1/15/19 13:36,507
1/15/19 13:36,509
1/15/19 13:36,507
1/15/19 13:36,506
1/15/19 13:36,506
1/15/19 13:36,506
1/15/19 13:36,507
1/15/19 13:36,509
1/15/19 13:36,508
1/15/19 13:36,509
1/15/19 13:36,508
1/15/19 13:36,509
1/15/19 13:36,510
1/15/19 13:36,508
1/15/19 13:36,508
1/15/19 13:36,509
1/15/19 13:36,508
1/15/19 13:36,508
1/15/19 13:36,507
1/15/19 13:36,509
1/15/19 13:36,509
1/15/19 13:36,507
1/15/19 13:36,509
1/15/19 13:36,508
1/15/19 13:36,509
1/15/19 13:36,509
1/15/19 13:36,508
1/15/19 13:36,510
1/15/19 13:36,507
1/15/19 13:36,507
1/15/19 13:36,505
1/15/19 13:36,507
1/15/19 13:36,505
1/15/19 13:36,506
1/15/19 13:36,505
1/15/19 13:36,507
1/15/19 13:36,507
1/15/19 13:36,508
1/15/19 13:36,506
1/15/19 13:36,508
1/15/19 13:36,513
1/15/19 13:36,518
1/15/19 13:36,504
1/15/19 13:36,506
1/15/19 13:36,506
1/15/19 13:36,507
1/15/19 13:36,508
1/15/19 13:36,508
1/15/19 13:36,504
1/15/19 13:36,506
1/15/19 13:36,508
1/15/19 13:36,507
1/15/19 13:36,506
1/15/19 13:36,506
1/15/19 13:36,508
1/15/19 13:36,509
1/15/19 13:36,507
1/15/19 13:36,508
1/15/19 13:36,509
1/15/19 13:36,510
1/15/19 13:36,509
1/15/19 13:36,509
1/15/19 13:36,509
1/15/19 13:36,507
1/15/19 13:36,509
1/15/19 13:36,508
1/15/19 13:36,507
1/15/19 13:36,507
1/15/19 13:36,508
1/15/19 13:36,508
1/15/19 13:36,508
1/15/19 13:36,506
1/15/19 13:36,510
1/15/19 13:36,507
1/15/19 13:36,509
1/15/19 13:36,508
1/15/19 13:36,507
1/15/19 13:36,507
1/15/19 13:36,508
1/15/19 13:36,507
1/15/19 13:36,507
1/15/19 13:36,506
1/15/19 13:36,507
1/15/19 13:36,506
1/15/19 13:36,507
1/15/19 13:36,506
1/15/19 13:36,506
1/15/19 13:36,506
1/15/19 13:36,505
1/15/19 13:36,508
1/15/19 13:36,517
1/15/19 13:36,514
1/15/19 13:36,505
1/15/19 13:36,504
1/15/19 13:36,508
1/15/19 13:36,507
1/15/19 13:36,509
1/15/19 13:36,506
1/15/19 13:36,506
1/15/19 13:36,507
1/15/19 13:36,506
1/15/19 13:36,507
1/15/19 13:36,507
1/15/19 13:36,506
1/15/19 13:36,507
1/15/19 13:36,508
1/15/19 13:36,508
1/15/19 13:36,509
1/15/19 13:36,507
1/15/19 13:36,509
1/15/19 13:36,508
1/15/19 13:36,509
1/15/19 13:36,508
1/15/19 13:36,508
1/15/19 13:36,508
1/15/19 13:36,507
1/15/19 13:36,508
1/15/19 13:36,508
1/15/19 13:36,509
1/15/19 13:36,510
1/15/19 13:36,508
1/15/19 13:36,509
1/15/19 13:36,508
1/15/19 13:36,508
1/15/19 13:36,507
1/15/19 13:36,506
1/15/19 13:36,508
1/15/19 13:36,508
1/15/19 13:36,508
1/15/19 13:36,508
1/15/19 13:36,507
1/15/19 13:36,507
1/15/19 13:36,508
1/15/19 13:36,506
1/15/19 13:36,509
1/15/19 13:36,506
1/15/19 13:36,507
1/15/19 13:36,506
1/15/19 13:36,505
1/15/19 13:36,508
1/15/19 13:36,508
1/15/19 13:36,521
1/15/19 13:36,505
1/15/19 13:36,504
1/15/19 13:36,506
1/15/19 13:36,506
1/15/19 13:36,507
1/15/19 13:36,505
1/15/19 13:36,507
1/15/19 13:36,506
1/15/19 13:36,504
1/15/19 13:36,506
1/15/19 13:36,508
1/15/19 13:36,508
1/15/19 13:36,508
1/15/19 13:36,507
1/15/19 13:36,508
1/15/19 13:36,507
1/15/19 13:36,507
1/15/19 13:36,509
1/15/19 13:36,508
1/15/19 13:36,510
1/15/19 13:36,508
1/15/19 13:36,509
1/15/19 13:36,508
1/15/19 13:36,509
1/15/19 13:36,508
1/15/19 13:36,508
1/15/19 13:36,509
1/15/19 13:36,507
1/15/19 13:36,508
1/15/19 13:36,508
1/15/19 13:36,508
1/15/19 13:36,508
1/15/19 13:36,509
1/15/19 13:36,508
1/15/19 13:36,508
1/15/19 13:36,507
1/15/19 13:36,507
1/15/19 13:36,508
1/15/19 13:36,509
1/15/19 13:36,506
1/15/19 13:36,507
1/15/19 13:36,506
1/15/19 13:36,506
1/15/19 13:36,506
1/15/19 13:36,508
1/15/19 13:36,506
1/15/19 13:36,508
1/15/19 13:36,508
1/15/19 13:36,507
1/15/19 13:36,518
1/15/19 13:36,512
1/15/19 13:45,508
1/15/19 13:45,508
1/15/19 13:45,518
1/15/19 13:45,511
1/15/19 13:45,501
1/15/19 13:45,504
1/15/19 13:45,506
1/15/19 13:45,507
1/15/19 13:45,508
1/15/19 13:45,504
1/15/19 13:45,506
1/15/19 13:45,506
1/15/19 13:45,506
1/15/19 13:45,508
1/15/19 13:45,508
1/15/19 13:45,509
1/15/19 13:45,508
1/15/19 13:45,508
1/15/19 13:45,509
1/15/19 13:45,508
1/15/19 13:45,509
1/15/19 13:45,510
1/15/19 13:45,511
1/15/19 13:45,511
1/15/19 13:45,508
1/15/19 13:45,510
1/15/19 13:45,509
1/15/19 13:45,509
1/15/19 13:45,509
1/15/19 13:45,507
1/15/19 13:45,506
1/15/19 13:45,508
1/15/19 13:45,507
1/15/19 13:45,507
1/15/19 13:45,505
1/15/19 13:45,508
1/15/19 13:45,508
1/15/19 13:45,508
1/15/19 13:45,508
1/15/19 13:45,506
1/15/19 13:45,508
1/15/19 13:45,508
1/15/19 13:45,508
1/15/19 13:45,508
1/15/19 13:45,507
1/15/19 13:45,507
1/15/19 13:45,508
1/15/19 13:45,508
1/15/19 13:45,509
1/15/19 13:45,508
1/15/19 13:45,509
1/15/19 13:45,507
1/15/19 13:45,520
1/15/19 13:45,506
1/15/19 13:45,502
1/15/19 13:45,505
1/15/19 13:45,503
1/15/19 13:45,506
1/15/19 13:45,506
1/15/19 13:45,503
1/15/19 13:45,504
1/15/19 13:45,504
1/15/19 13:45,506
1/15/19 13:45,507
1/15/19 13:45,509
1/15/19 13:45,508
1/15/19 13:45,509
1/15/19 13:45,509
1/15/19 13:45,509
1/15/19 13:45,511
1/15/19 13:45,509
1/15/19 13:45,510
1/15/19 13:45,510
1/15/19 13:45,511
1/15/19 13:45,510
1/15/19 13:45,509
1/15/19 13:45,508
1/15/19 13:45,509
1/15/19 13:45,509
1/15/19 13:45,505
1/15/19 13:45,508
1/15/19 13:45,508
1/15/19 13:45,508
1/15/19 13:45,508
1/15/19 13:45,506
1/15/19 13:45,509
1/15/19 13:45,507
1/15/19 13:45,507
1/15/19 13:45,507
1/15/19 13:45,507
1/15/19 13:45,508
1/15/19 13:45,506
1/15/19 13:45,507
1/15/19 13:45,509
1/15/19 13:45,508
1/15/19 13:45,508
1/15/19 13:45,508
1/15/19 13:45,507
1/15/19 13:45,507
1/15/19 13:45,506
1/15/19 13:45,510
1/15/19 13:45,509
1/15/19 13:45,522
1/15/19 13:45,504
1/15/19 13:45,504
1/15/19 13:45,504
1/15/19 13:45,505
1/15/19 13:45,505
1/15/19 13:45,505
1/15/19 13:45,507
1/15/19 13:45,504
1/15/19 13:45,506
1/15/19 13:45,505
1/15/19 13:45,506
1/15/19 13:45,506
1/15/19 13:45,507
1/15/19 13:45,508
1/15/19 13:45,508
1/15/19 13:45,509
1/15/19 13:45,511
1/15/19 13:45,511
1/15/19 13:45,510
1/15/19 13:45,510
1/15/19 13:45,508
1/15/19 13:45,509
1/15/19 13:45,509
1/15/19 13:45,509
1/15/19 13:45,509
1/15/19 13:45,509
1/15/19 13:45,509
1/15/19 13:45,509
1/15/19 13:45,508
1/15/19 13:45,508
1/15/19 13:45,507
1/15/19 13:45,507
1/15/19 13:45,507
1/15/19 13:45,506
1/15/19 13:45,507
1/15/19 13:45,506
1/15/19 13:45,509
1/15/19 13:45,507
1/15/19 13:45,507
1/15/19 13:45,506
1/15/19 13:45,507
1/15/19 13:45,508
1/15/19 13:45,509
1/15/19 13:45,507
1/15/19 13:45,509
1/15/19 13:45,509
1/15/19 13:45,507
1/15/19 13:45,508
1/15/19 13:45,514
1/15/19 13:45,517
1/15/19 13:45,503
1/15/19 13:45,505
1/15/19 13:45,506
1/15/19 13:45,509
1/15/19 13:45,507
1/15/19 13:45,506
1/15/19 13:45,505
1/15/19 13:45,505
1/15/19 13:45,505
1/15/19 13:45,507
1/15/19 13:45,506
1/15/19 13:45,507
1/15/19 13:45,507
1/15/19 13:45,506
1/15/19 13:45,509
1/15/19 13:45,508
1/15/19 13:45,509
1/15/19 13:45,508
1/15/19 13:45,509
1/15/19 13:45,511
1/15/19 13:45,510
1/15/19 13:45,511
1/15/19 13:45,510
1/15/19 13:45,509
1/15/19 13:45,508
1/15/19 13:45,510
1/15/19 13:45,509
1/15/19 13:45,508
1/15/19 13:45,506
1/15/19 13:45,509
1/15/19 13:45,508
1/15/19 13:45,508
1/15/19 13:45,508
1/15/19 13:45,507
1/15/19 13:45,508
1/15/19 13:45,507
1/15/19 13:45,508
1/15/19 13:45,508
1/15/19 13:45,505
1/15/19 13:45,507
1/15/19 13:45,507
1/15/19 13:45,507
1/15/19 13:45,508
1/15/19 13:45,506
1/15/19 13:45,508
1/15/19 13:45,508
1/15/19 13:45,508
1/15/19 13:45,508
1/15/19 13:45,509
1/15/19 13:45,521
1/15/19 13:45,503
1/15/19 13:45,504
1/15/19 13:45,504
1/15/19 13:45,507
1/15/19 13:45,506
1/15/19 13:45,505
1/15/19 13:45,505
1/15/19 13:45,506
1/15/19 13:45,507
1/15/19 13:45,507
1/15/19 13:45,508
1/15/19 13:45,507
1/15/19 13:45,510
1/15/19 13:45,507
1/15/19 13:45,508
1/15/19 13:45,508
1/15/19 13:45,511
1/15/19 13:45,508
1/15/19 13:45,507
1/15/19 13:45,510
1/15/19 13:45,507
1/15/19 13:45,508
1/15/19 13:45,508
1/15/19 13:45,509
1/15/19 13:45,510
1/15/19 13:45,509
1/15/19 13:45,508
1/15/19 13:45,508
1/15/19 13:45,508
1/15/19 13:45,507
1/15/19 13:45,507
1/15/19 13:45,509
1/15/19 13:45,508
1/15/19 13:45,509
1/15/19 13:45,509
1/15/19 13:45,508
1/15/19 13:45,506
1/15/19 13:45,507
1/15/19 13:45,506
1/15/19 13:45,509
1/15/19 13:45,508
1/15/19 13:45,508
1/15/19 13:45,507
1/15/19 13:45,506
1/15/19 13:45,507
1/15/19 13:45,506
1/15/19 13:45,508
1/15/19 13:45,507
1/15/19 13:45,510
1/15/19 13:45,519
1/15/19 13:45,501
1/15/19 13:45,504
1/15/19 13:45,505
1/15/19 13:45,508
1/15/19 13:45,508
1/15/19 13:45,506
1/15/19 13:45,507
1/15/19 13:45,505
1/15/19 13:45,506
1/15/19 13:45,508
1/15/19 13:45,507
1/15/19 13:45,508
1/15/19 13:45,508
1/15/19 13:45,508
1/15/19 13:45,509
1/15/19 13:45,509
1/15/19 13:45,510
1/15/19 13:45,510
1/15/19 13:45,508
1/15/19 13:45,510
1/15/19 13:45,507
1/15/19 13:45,508
1/15/19 13:45,507
1/15/19 13:45,509
1/15/19 13:45,505
1/15/19 13:45,507
1/15/19 13:45,507
1/15/19 13:45,508
1/15/19 13:45,508
1/15/19 13:45,509
1/15/19 13:45,509
1/15/19 13:45,508
1/15/19 13:45,510
1/15/19 13:45,509
1/15/19 13:45,508
1/15/19 13:45,506
1/15/19 13:45,509
1/15/19 13:45,508
1/15/19 13:45,507
1/15/19 13:45,507
1/15/19 13:45,507
1/15/19 13:45,509
1/15/19 13:45,507
1/15/19 13:45,507
1/15/19 13:45,508
1/15/19 13:45,507
1/15/19 13:45,507
1/15/19 13:45,506
1/15/19 13:45,509
1/15/19 13:45,521
1/15/19 13:45,501
1/15/19 13:45,505
1/15/19 13:45,505
1/15/19 13:45,506
1/15/19 13:45,506
1/15/19 13:45,505
1/15/19 13:45,507
1/15/19 13:45,506
1/15/19 13:45,507
1/15/19 13:45,509
1/15/19 13:45,505
1/15/19 13:45,508
1/15/19 13:45,508
1/15/19 13:45,506
1/15/19 13:45,509
1/15/19 13:45,510
1/15/19 13:45,509
1/15/19 13:45,509
1/15/19 13:45,510
1/15/19 13:45,509
1/15/19 13:45,508
1/15/19 13:45,508
1/15/19 13:45,508
1/15/19 13:45,509
1/15/19 13:45,506
1/15/19 13:45,506
1/15/19 13:45,508
1/15/19 13:45,506
1/15/19 13:45,508
1/15/19 13:45,508
1/15/19 13:45,507
1/15/19 13:45,508
1/15/19 13:45,509
1/15/19 13:45,510
1/15/19 13:45,509
1/15/19 13:45,505
1/15/19 13:45,508
1/15/19 13:45,508
1/15/19 13:45,507
1/15/19 13:45,507
1/15/19 13:45,508
1/15/19 13:45,507
1/15/19 13:45,508
1/15/19 13:45,508
1/15/19 13:45,508
1/15/19 13:45,508
1/15/19 13:45,507
1/15/19 13:45,507
1/15/19 13:45,514
1/15/19 13:45,520
1/15/19 13:45,501
1/15/19 13:45,503
1/15/19 13:45,505
1/15/19 13:45,505
1/15/19 13:45,503
1/15/19 13:45,505
1/15/19 13:45,506
1/15/19 13:45,504
1/15/19 13:45,507
1/15/19 13:45,506
1/15/19 13:45,508
1/15/19 13:45,508
1/15/19 13:45,508
1/15/19 13:45,509
1/15/19 13:45,509
1/15/19 13:45,509
1/15/19 13:45,508
1/15/19 13:45,507
1/15/19 13:45,509
1/15/19 13:45,511
1/15/19 13:45,509
1/15/19 13:45,510
1/15/19 13:45,508
1/15/19 13:45,509
1/15/19 13:45,507
1/15/19 13:45,507
1/15/19 13:45,509
1/15/19 13:45,507
1/15/19 13:45,507
1/15/19 13:45,507
1/15/19 13:45,506
1/15/19 13:45,506
1/15/19 13:45,507
1/15/19 13:45,507
1/15/19 13:45,508
1/15/19 13:45,507
1/15/19 13:45,508
1/15/19 13:45,508
1/15/19 13:45,508
1/15/19 13:45,508
1/15/19 13:45,508
1/15/19 13:45,508
1/15/19 13:45,508
1/15/19 13:45,506
1/15/19 13:45,509
1/15/19 13:45,507
1/15/19 13:45,508
1/15/19 13:45,508
1/15/19 13:45,519
1/15/19 13:45,508
1/15/19 13:45,503
1/15/19 13:45,504
1/15/19 13:45,506
1/15/19 13:45,505
1/15/19 13:45,505
1/15/19 13:45,505
1/15/19 13:45,505
1/15/19 13:45,504
1/15/19 13:45,505
1/15/19 13:45,507
1/15/19 13:45,506
1/15/19 13:45,506
1/15/19 13:45,508
1/15/19 13:45,508
1/15/19 13:45,511
1/15/19 13:45,510
1/15/19 13:45,509
1/15/19 13:45,507
1/15/19 13:45,510
1/15/19 13:45,508
1/15/19 13:45,509
1/15/19 13:45,509
1/15/19 13:45,508
1/15/19 13:45,508
1/15/19 13:45,510
1/15/19 13:45,508
1/15/19 13:45,507
1/15/19 13:45,509
1/15/19 13:45,507
1/15/19 13:45,507
1/15/19 13:45,509
1/15/19 13:45,507
1/15/19 13:45,506
1/15/19 13:45,507
1/15/19 13:45,506
1/15/19 13:45,508
1/15/19 13:45,505
1/15/19 13:45,504
1/15/19 13:45,508
1/15/19 13:45,507
1/15/19 13:45,508
1/15/19 13:45,509
1/15/19 13:45,508
1/15/19 13:45,508
1/15/19 13:45,507
1/15/19 13:45,506
1/15/19 13:45,509
1/15/19 13:45,506
1/15/19 13:45,516
1/15/19 13:45,516
1/15/19 13:45,504
1/15/19 13:45,505
1/15/19 13:45,506
1/15/19 13:45,506
1/15/19 13:45,504
1/15/19 13:45,504
1/15/19 13:45,507
1/15/19 13:45,504
1/15/19 13:45,506
1/15/19 13:45,506
1/15/19 13:45,505
1/15/19 13:45,508
1/15/19 13:45,507
1/15/19 13:45,508
1/15/19 13:45,510
1/15/19 13:45,508
1/15/19 13:45,510
1/15/19 13:45,508
1/15/19 13:45,510
1/15/19 13:45,508
1/15/19 13:45,509
1/15/19 13:45,508
1/15/19 13:45,509
1/15/19 13:45,509
1/15/19 13:45,508
1/15/19 13:45,508
1/15/19 13:45,510
1/15/19 13:45,510
1/15/19 13:45,508
1/15/19 13:45,508
1/15/19 13:45,508
1/15/19 13:45,506
1/15/19 13:45,508
1/15/19 13:45,508
1/15/19 13:45,508
1/15/19 13:45,507
1/15/19 13:45,507
1/15/19 13:45,507
1/15/19 13:45,506
1/15/19 13:45,506
1/15/19 13:45,508
1/15/19 13:45,507
1/15/19 13:45,506
1/15/19 13:45,506
1/15/19 13:45,507
1/15/19 13:45,508
1/15/19 13:45,510
1/15/19 13:45,508
1/15/19 13:45,516
1/15/19 13:45,515
1/15/19 13:45,503
1/15/19 13:45,505
1/15/19 13:45,507
1/15/19 13:45,506
1/15/19 13:45,507
1/15/19 13:45,506
1/15/19 13:45,506
1/15/19 13:45,508
1/15/19 13:45,507
1/15/19 13:45,505
1/15/19 13:45,505
1/15/19 13:45,507
1/15/19 13:45,506
1/15/19 13:45,506
1/15/19 13:45,505
1/15/19 13:45,510
1/15/19 13:45,510
1/15/19 13:45,510
1/15/19 13:45,509
1/15/19 13:45,509
1/15/19 13:45,510
1/15/19 13:45,508
1/15/19 13:45,507
1/15/19 13:45,509
1/15/19 13:45,509
1/15/19 13:45,508
1/15/19 13:45,507
1/15/19 13:45,508
1/15/19 13:45,508
1/15/19 13:45,508
1/15/19 13:45,508
1/15/19 13:45,509
1/15/19 13:45,510
1/15/19 13:45,508
1/15/19 13:45,507
1/15/19 13:45,507
1/15/19 13:45,507
1/15/19 13:45,507
1/15/19 13:45,507
1/15/19 13:45,507
1/15/19 13:45,507
1/15/19 13:45,504
1/15/19 13:45,506
1/15/19 13:45,507
1/15/19 13:45,508
1/15/19 13:45,505
1/15/19 13:45,508
1/15/19 13:45,512
1/15/19 13:45,519
1/15/19 13:45,501
1/15/19 13:45,506
1/15/19 13:45,507
1/15/19 13:45,506
1/15/19 13:45,507
1/15/19 13:45,506
1/15/19 13:45,507
1/15/19 13:45,505
1/15/19 13:45,507
1/15/19 13:45,507
1/15/19 13:45,506
1/15/19 13:45,507
1/15/19 13:45,507
1/15/19 13:45,509
1/15/19 13:45,507
1/15/19 13:45,508
1/15/19 13:45,510
1/15/19 13:45,508
1/15/19 13:45,510
1/15/19 13:45,507
1/15/19 13:45,508
1/15/19 13:45,507
1/15/19 13:45,507
1/15/19 13:45,508
1/15/19 13:45,508
1/15/19 13:45,509
1/15/19 13:45,508
1/15/19 13:45,507
1/15/19 13:45,508
1/15/19 13:45,509
1/15/19 13:45,509
1/15/19 13:45,507
1/15/19 13:45,508
1/15/19 13:45,510
1/15/19 13:45,508
1/15/19 13:45,508
1/15/19 13:45,508
1/15/19 13:45,508
1/15/19 13:45,510
1/15/19 13:45,509
1/15/19 13:45,507
1/15/19 13:45,508
1/15/19 13:45,506
1/15/19 13:45,506
1/15/19 13:45,506
1/15/19 13:45,507
1/15/19 13:45,507
1/15/19 13:45,507
1/15/19 13:54,512
1/15/19 13:54,511
1/15/19 13:54,510
1/15/19 13:54,510
1/15/19 13:54,509
1/15/19 13:54,509
1/15/19 13:54,506
1/15/19 13:54,510
1/15/19 13:54,508
1/15/19 13:54,508
1/15/19 13:54,509
1/15/19 13:54,506
1/15/19 13:54,508
1/15/19 13:54,508
1/15/19 13:54,507
1/15/19 13:54,510
1/15/19 13:54,507
1/15/19 13:54,507
1/15/19 13:54,506
1/15/19 13:54,508
1/15/19 13:54,508
1/15/19 13:54,511
1/15/19 13:54,514
1/15/19 13:54,503
1/15/19 13:54,505
1/15/19 13:54,506
1/15/19 13:54,507
1/15/19 13:54,507
1/15/19 13:54,505
1/15/19 13:54,505
1/15/19 13:54,507
1/15/19 13:54,507
1/15/19 13:54,508
1/15/19 13:54,508
1/15/19 13:54,508
1/15/19 13:54,508
1/15/19 13:54,508
1/15/19 13:54,509
1/15/19 13:54,507
1/15/19 13:54,508
1/15/19 13:54,508
1/15/19 13:54,507
1/15/19 13:54,508
1/15/19 13:54,508
1/15/19 13:54,508
1/15/19 13:54,508
1/15/19 13:54,504
1/15/19 13:54,508
1/15/19 13:54,509
1/15/19 13:54,509
1/15/19 13:54,509
1/15/19 13:54,508
1/15/19 13:54,510
1/15/19 13:54,510
1/15/19 13:54,508
1/15/19 13:54,508
1/15/19 13:54,507
1/15/19 13:54,507
1/15/19 13:54,506
1/15/19 13:54,506
1/15/19 13:54,510
1/15/19 13:54,508
1/15/19 13:54,509
1/15/19 13:54,506
1/15/19 13:54,509
1/15/19 13:54,508
1/15/19 13:54,505
1/15/19 13:54,508
1/15/19 13:54,509
1/15/19 13:54,507
1/15/19 13:54,507
1/15/19 13:54,517
1/15/19 13:54,508
1/15/19 13:54,503
1/15/19 13:54,505
1/15/19 13:54,506
1/15/19 13:54,504
1/15/19 13:54,508
1/15/19 13:54,506
1/15/19 13:54,505
1/15/19 13:54,506
1/15/19 13:54,506
1/15/19 13:54,507
1/15/19 13:54,506
1/15/19 13:54,507
1/15/19 13:54,509
1/15/19 13:54,507
1/15/19 13:54,512
1/15/19 13:54,510
1/15/19 13:54,509
1/15/19 13:54,509
1/15/19 13:54,508
1/15/19 13:54,510
1/15/19 13:54,509
1/15/19 13:54,509
1/15/19 13:54,508
1/15/19 13:54,505
1/15/19 13:54,508
1/15/19 13:54,506
1/15/19 13:54,508
1/15/19 13:54,508
1/15/19 13:54,506
1/15/19 13:54,509
1/15/19 13:54,507
1/15/19 13:54,510
1/15/19 13:54,509
1/15/19 13:54,509
1/15/19 13:54,508
1/15/19 13:54,507
1/15/19 13:54,507
1/15/19 13:54,507
1/15/19 13:54,507
1/15/19 13:54,508
1/15/19 13:54,508
1/15/19 13:54,509
1/15/19 13:54,508
1/15/19 13:54,507
1/15/19 13:54,509
1/15/19 13:54,507
1/15/19 13:54,508
1/15/19 13:54,514
1/15/19 13:54,513
1/15/19 13:54,502
1/15/19 13:54,502
1/15/19 13:54,505
1/15/19 13:54,506
1/15/19 13:54,505
1/15/19 13:54,507
1/15/19 13:54,506
1/15/19 13:54,506
1/15/19 13:54,506
1/15/19 13:54,505
1/15/19 13:54,508
1/15/19 13:54,508
1/15/19 13:54,510
1/15/19 13:54,508
1/15/19 13:54,508
1/15/19 13:54,510
1/15/19 13:54,509
1/15/19 13:54,511
1/15/19 13:54,508
1/15/19 13:54,509
1/15/19 13:54,510
1/15/19 13:54,507
1/15/19 13:54,509
1/15/19 13:54,506
1/15/19 13:54,506
1/15/19 13:54,508
1/15/19 13:54,507
1/15/19 13:54,508
1/15/19 13:54,507
1/15/19 13:54,506
1/15/19 13:54,507
1/15/19 13:54,507
1/15/19 13:54,509
1/15/19 13:54,508
1/15/19 13:54,507
1/15/19 13:54,509
1/15/19 13:54,506
1/15/19 13:54,510
1/15/19 13:54,507
1/15/19 13:54,506
1/15/19 13:54,507
1/15/19 13:54,507
1/15/19 13:54,509
1/15/19 13:54,509
1/15/19 13:54,509
1/15/19 13:54,511
1/15/19 13:54,506
1/15/19 13:54,516
1/15/19 13:54,509
1/15/19 13:54,502
1/15/19 13:54,504
1/15/19 13:54,503
1/15/19 13:54,506
1/15/19 13:54,506
1/15/19 13:54,507
1/15/19 13:54,505
1/15/19 13:54,506
1/15/19 13:54,507
1/15/19 13:54,506
1/15/19 13:54,510
1/15/19 13:54,509
1/15/19 13:54,507
1/15/19 13:54,509
1/15/19 13:54,509
1/15/19 13:54,510
1/15/19 13:54,508
1/15/19 13:54,508
1/15/19 13:54,510
1/15/19 13:54,508
1/15/19 13:54,510
1/15/19 13:54,509
1/15/19 13:54,508
1/15/19 13:54,510
1/15/19 13:54,507
1/15/19 13:54,506
1/15/19 13:54,507
1/15/19 13:54,506
1/15/19 13:54,509
1/15/19 13:54,506
1/15/19 13:54,507
1/15/19 13:54,508
1/15/19 13:54,507
1/15/19 13:54,508
1/15/19 13:54,509
1/15/19 13:54,508
1/15/19 13:54,509
1/15/19 13:54,507
1/15/19 13:54,511
1/15/19 13:54,506
1/15/19 13:54,507
1/15/19 13:54,507
1/15/19 13:54,505
1/15/19 13:54,510
1/15/19 13:54,508
1/15/19 13:54,508
1/15/19 13:54,508
1/15/19 13:54,509
1/15/19 13:54,521
1/15/19 13:54,501
1/15/19 13:54,505
1/15/19 13:54,505
1/15/19 13:54,505
1/15/19 13:54,505
1/15/19 13:54,504
1/15/19 13:54,503
1/15/19 13:54,506
1/15/19 13:54,505
1/15/19 13:54,507
1/15/19 13:54,508
1/15/19 13:54,510
1/15/19 13:54,509
1/15/19 13:54,508
1/15/19 13:54,511
1/15/19 13:54,508
1/15/19 13:54,510
1/15/19 13:54,511
1/15/19 13:54,508
1/15/19 13:54,511
1/15/19 13:54,508
1/15/19 13:54,510
1/15/19 13:54,506
1/15/19 13:54,508
1/15/19 13:54,508
1/15/19 13:54,506
1/15/19 13:54,508
1/15/19 13:54,506
1/15/19 13:54,506
1/15/19 13:54,508
1/15/19 13:54,506
1/15/19 13:54,507
1/15/19 13:54,507
1/15/19 13:54,506
1/15/19 13:54,508
1/15/19 13:54,505
1/15/19 13:54,508
1/15/19 13:54,508
1/15/19 13:54,507
1/15/19 13:54,508
1/15/19 13:54,506
1/15/19 13:54,509
1/15/19 13:54,507
1/15/19 13:54,508
1/15/19 13:54,507
1/15/19 13:54,508
1/15/19 13:54,510
1/15/19 13:54,513
1/15/19 13:54,518
1/15/19 13:54,505
1/15/19 13:54,505
1/15/19 13:54,506
1/15/19 13:54,505
1/15/19 13:54,506
1/15/19 13:54,505
1/15/19 13:54,503
1/15/19 13:54,506
1/15/19 13:54,504
1/15/19 13:54,503
1/15/19 13:54,506
1/15/19 13:54,506
1/15/19 13:54,512
1/15/19 13:54,507
1/15/19 13:54,509
1/15/19 13:54,509
1/15/19 13:54,511
1/15/19 13:54,510
1/15/19 13:54,507
1/15/19 13:54,511
1/15/19 13:54,510
1/15/19 13:54,509
1/15/19 13:54,510
1/15/19 13:54,509
1/15/19 13:54,509
1/15/19 13:54,510
1/15/19 13:54,507
1/15/19 13:54,508
1/15/19 13:54,507
1/15/19 13:54,507
1/15/19 13:54,507
1/15/19 13:54,506
1/15/19 13:54,507
1/15/19 13:54,507
1/15/19 13:54,508
1/15/19 13:54,507
1/15/19 13:54,507
1/15/19 13:54,509
1/15/19 13:54,506
1/15/19 13:54,507
1/15/19 13:54,505
1/15/19 13:54,507
1/15/19 13:54,509
1/15/19 13:54,508
1/15/19 13:54,507
1/15/19 13:54,506
1/15/19 13:54,506
1/15/19 13:54,510
1/15/19 13:54,520
1/15/19 13:54,504
1/15/19 13:54,504
1/15/19 13:54,506
1/15/19 13:54,507
1/15/19 13:54,505
1/15/19 13:54,507
1/15/19 13:54,504
1/15/19 13:54,506
1/15/19 13:54,507
1/15/19 13:54,503
1/15/19 13:54,507
1/15/19 13:54,506
1/15/19 13:54,507
1/15/19 13:54,510
1/15/19 13:54,507
1/15/19 13:54,508
1/15/19 13:54,509
1/15/19 13:54,508
1/15/19 13:54,509
1/15/19 13:54,510
1/15/19 13:54,511
1/15/19 13:54,509
1/15/19 13:54,507
1/15/19 13:54,509
1/15/19 13:54,506
1/15/19 13:54,508
1/15/19 13:54,508
1/15/19 13:54,507
1/15/19 13:54,510
1/15/19 13:54,506
1/15/19 13:54,511
1/15/19 13:54,507
1/15/19 13:54,509
1/15/19 13:54,508
1/15/19 13:54,506
1/15/19 13:54,509
1/15/19 13:54,506
1/15/19 13:54,507
1/15/19 13:54,507
1/15/19 13:54,505
1/15/19 13:54,507
1/15/19 13:54,508
1/15/19 13:54,507
1/15/19 13:54,509
1/15/19 13:54,507
1/15/19 13:54,507
1/15/19 13:54,507
1/15/19 13:54,507
1/15/19 13:54,520
1/15/19 13:54,504
1/15/19 13:54,505
1/15/19 13:54,506
1/15/19 13:54,507
1/15/19 13:54,511
1/15/19 13:54,507
1/15/19 13:54,507
1/15/19 13:54,505
1/15/19 13:54,505
1/15/19 13:54,507
1/15/19 13:54,506
1/15/19 13:54,507
1/15/19 13:54,506
1/15/19 13:54,506
1/15/19 13:54,509
1/15/19 13:54,506
1/15/19 13:54,510
1/15/19 13:54,510
1/15/19 13:54,509
1/15/19 13:54,509
1/15/19 13:54,507
1/15/19 13:54,511
1/15/19 13:54,509
1/15/19 13:54,510
1/15/19 13:54,509
1/15/19 13:54,507
1/15/19 13:54,510
1/15/19 13:54,506
1/15/19 13:54,509
1/15/19 13:54,507
1/15/19 13:54,508
1/15/19 13:54,510
1/15/19 13:54,507
1/15/19 13:54,508
1/15/19 13:54,507
1/15/19 13:54,508
1/15/19 13:54,509
1/15/19 13:54,506
1/15/19 13:54,508
1/15/19 13:54,506
1/15/19 13:54,507
1/15/19 13:54,508
1/15/19 13:54,505
1/15/19 13:54,506
1/15/19 13:54,508
1/15/19 13:54,507
1/15/19 13:54,509
1/15/19 13:54,507
1/15/19 13:54,519
1/15/19 13:54,510
1/15/19 13:54,502
1/15/19 13:54,506
1/15/19 13:54,507
1/15/19 13:54,509
1/15/19 13:54,509
1/15/19 13:54,504
1/15/19 13:54,507
1/15/19 13:54,505
1/15/19 13:54,506
1/15/19 13:54,506
1/15/19 13:54,505
1/15/19 13:54,509
1/15/19 13:54,508
1/15/19 13:54,509
1/15/19 13:54,507
1/15/19 13:54,506
1/15/19 13:54,510
1/15/19 13:54,507
1/15/19 13:54,508
1/15/19 13:54,510
1/15/19 13:54,509
1/15/19 13:54,509
1/15/19 13:54,506
1/15/19 13:54,508
1/15/19 13:54,509
1/15/19 13:54,510
1/15/19 13:54,510
1/15/19 13:54,505
1/15/19 13:54,509
1/15/19 13:54,509
1/15/19 13:54,507
1/15/19 13:54,509
1/15/19 13:54,507
1/15/19 13:54,508
1/15/19 13:54,507
1/15/19 13:54,507
1/15/19 13:54,510
1/15/19 13:54,506
1/15/19 13:54,510
1/15/19 13:54,507
1/15/19 13:54,507
1/15/19 13:54,508
1/15/19 13:54,506
1/15/19 13:54,505
1/15/19 13:54,506
1/15/19 13:54,507
1/15/19 13:54,508
1/15/19 13:54,508
1/15/19 13:54,521
1/15/19 13:54,503
1/15/19 13:54,505
1/15/19 13:54,505
1/15/19 13:54,507
1/15/19 13:54,507
1/15/19 13:54,506
1/15/19 13:54,505
1/15/19 13:54,506
1/15/19 13:54,505
1/15/19 13:54,507
1/15/19 13:54,507
1/15/19 13:54,509
1/15/19 13:54,508
1/15/19 13:54,506
1/15/19 13:54,510
1/15/19 13:54,507
1/15/19 13:54,508
1/15/19 13:54,508
1/15/19 13:54,508
1/15/19 13:54,510
1/15/19 13:54,508
1/15/19 13:54,509
1/15/19 13:54,507
1/15/19 13:54,507
1/15/19 13:54,509
1/15/19 13:54,509
1/15/19 13:54,508
1/15/19 13:54,510
1/15/19 13:54,508
1/15/19 13:54,509
1/15/19 13:54,507
1/15/19 13:54,508
1/15/19 13:54,508
1/15/19 13:54,505
1/15/19 13:54,509
1/15/19 13:54,507
1/15/19 13:54,508
1/15/19 13:54,507
1/15/19 13:54,507
1/15/19 13:54,510
1/15/19 13:54,507
1/15/19 13:54,507
1/15/19 13:54,507
1/15/19 13:54,508
1/15/19 13:54,509
1/15/19 13:54,506
1/15/19 13:54,509
1/15/19 13:54,508
1/15/19 13:54,509
1/15/19 13:54,519
1/15/19 13:54,500
1/15/19 13:54,503
1/15/19 13:54,506
1/15/19 13:54,507
1/15/19 13:54,506
1/15/19 13:54,505
1/15/19 13:54,507
1/15/19 13:54,507
1/15/19 13:54,507
1/15/19 13:54,509
1/15/19 13:54,506
1/15/19 13:54,511
1/15/19 13:54,507
1/15/19 13:54,507
1/15/19 13:54,509
1/15/19 13:54,507
1/15/19 13:54,509
1/15/19 13:54,507
1/15/19 13:54,508
1/15/19 13:54,508
1/15/19 13:54,506
1/15/19 13:54,508
1/15/19 13:54,509
1/15/19 13:54,507
1/15/19 13:54,509
1/15/19 13:54,507
1/15/19 13:54,509
1/15/19 13:54,508
1/15/19 13:54,509
1/15/19 13:54,510
1/15/19 13:54,508
1/15/19 13:54,508
1/15/19 13:54,509
1/15/19 13:54,507
1/15/19 13:54,508
1/15/19 13:54,507
1/15/19 13:54,510
1/15/19 13:54,507
1/15/19 13:54,508
1/15/19 13:54,507
1/15/19 13:54,508
1/15/19 13:54,509
1/15/19 13:54,507
1/15/19 13:54,507
1/15/19 13:54,505
1/15/19 13:54,506
1/15/19 13:54,507
1/15/19 13:54,512
1/15/19 13:54,516
1/15/19 13:54,502
1/15/19 13:54,503
1/15/19 13:54,507
1/15/19 13:54,507
1/15/19 13:54,508
1/15/19 13:54,508
1/15/19 13:54,505
1/15/19 13:54,505
1/15/19 13:54,505
1/15/19 13:54,507
1/15/19 13:54,508
1/15/19 13:54,508
1/15/19 13:54,508
1/15/19 13:54,509
1/15/19 13:54,509
1/15/19 13:54,509
1/15/19 13:54,510
1/15/19 13:54,510
1/15/19 13:54,507
1/15/19 13:54,509
1/15/19 13:54,509
1/15/19 13:54,506
1/15/19 13:54,509
1/15/19 13:54,507
1/15/19 13:54,508
1/15/19 13:54,508
1/15/19 13:54,506
1/15/19 13:54,509
1/15/19 13:54,482
1/15/19 13:54,679
1/15/19 13:54,490
1/15/19 13:54,466
1/15/19 13:54,478
1/15/19 13:54,488
1/15/19 13:54,496
1/15/19 14:03,508
1/15/19 14:03,509
1/15/19 14:03,508
1/15/19 14:03,508
1/15/19 14:03,510
1/15/19 14:03,509
1/15/19 14:03,508
1/15/19 14:03,509
1/15/19 14:03,508
1/15/19 14:03,509
1/15/19 14:03,508
1/15/19 14:03,510
1/15/19 14:03,511
1/15/19 14:03,509
1/15/19 14:03,508
1/15/19 14:03,508
1/15/19 14:03,508
1/15/19 14:03,509
1/15/19 14:03,507
1/15/19 14:03,508
1/15/19 14:03,508
1/15/19 14:03,509
1/15/19 14:03,510
1/15/19 14:03,508
1/15/19 14:03,507
1/15/19 14:03,507
1/15/19 14:03,507
1/15/19 14:03,507
1/15/19 14:03,507
1/15/19 14:03,507
1/15/19 14:03,506
1/15/19 14:03,508
1/15/19 14:03,506
1/15/19 14:03,506
1/15/19 14:03,508
1/15/19 14:03,507
1/15/19 14:03,511
1/15/19 14:03,520
1/15/19 14:03,502
1/15/19 14:03,505
1/15/19 14:03,506
1/15/19 14:03,507
1/15/19 14:03,507
1/15/19 14:03,506
1/15/19 14:03,508
1/15/19 14:03,508
1/15/19 14:03,505
1/15/19 14:03,505
1/15/19 14:03,506
1/15/19 14:03,507
1/15/19 14:03,508
1/15/19 14:03,507
1/15/19 14:03,509
1/15/19 14:03,509
1/15/19 14:03,510
1/15/19 14:03,509
1/15/19 14:03,509
1/15/19 14:03,508
1/15/19 14:03,508
1/15/19 14:03,508
1/15/19 14:03,507
1/15/19 14:03,510
1/15/19 14:03,509
1/15/19 14:03,507
1/15/19 14:03,510
1/15/19 14:03,510
1/15/19 14:03,506
1/15/19 14:03,507
1/15/19 14:03,507
1/15/19 14:03,509
1/15/19 14:03,508
1/15/19 14:03,508
1/15/19 14:03,508
1/15/19 14:03,508
1/15/19 14:03,508
1/15/19 14:03,507
1/15/19 14:03,508
1/15/19 14:03,507
1/15/19 14:03,508
1/15/19 14:03,508
1/15/19 14:03,508
1/15/19 14:03,506
1/15/19 14:03,506
1/15/19 14:03,507
1/15/19 14:03,507
1/15/19 14:03,506
1/15/19 14:03,516
1/15/19 14:03,511
1/15/19 14:03,503
1/15/19 14:03,506
1/15/19 14:03,506
1/15/19 14:03,508
1/15/19 14:03,509
1/15/19 14:03,507
1/15/19 14:03,506
1/15/19 14:03,505
1/15/19 14:03,506
1/15/19 14:03,506
1/15/19 14:03,508
1/15/19 14:03,506
1/15/19 14:03,508
1/15/19 14:03,508
1/15/19 14:03,509
1/15/19 14:03,509
1/15/19 14:03,509
1/15/19 14:03,508
1/15/19 14:03,510
1/15/19 14:03,510
1/15/19 14:03,509
1/15/19 14:03,508
1/15/19 14:03,508
1/15/19 14:03,509
1/15/19 14:03,507
1/15/19 14:03,507
1/15/19 14:03,507
1/15/19 14:03,508
1/15/19 14:03,507
1/15/19 14:03,507
1/15/19 14:03,508
1/15/19 14:03,508
1/15/19 14:03,509
1/15/19 14:03,507
1/15/19 14:03,507
1/15/19 14:03,509
1/15/19 14:03,507
1/15/19 14:03,508
1/15/19 14:03,508
1/15/19 14:03,508
1/15/19 14:03,508
1/15/19 14:03,508
1/15/19 14:03,509
1/15/19 14:03,509
1/15/19 14:03,508
1/15/19 14:03,508
1/15/19 14:03,506
1/15/19 14:03,508
1/15/19 14:03,521
1/15/19 14:03,502
1/15/19 14:03,503
1/15/19 14:03,504
1/15/19 14:03,507
1/15/19 14:03,506
1/15/19 14:03,506
1/15/19 14:03,504
1/15/19 14:03,506
1/15/19 14:03,506
1/15/19 14:03,506
1/15/19 14:03,507
1/15/19 14:03,507
1/15/19 14:03,507
1/15/19 14:03,507
1/15/19 14:03,508
1/15/19 14:03,509
1/15/19 14:03,510
1/15/19 14:03,511
1/15/19 14:03,510
1/15/19 14:03,510
1/15/19 14:03,509
1/15/19 14:03,509
1/15/19 14:03,509
1/15/19 14:03,509
1/15/19 14:03,508
1/15/19 14:03,508
1/15/19 14:03,508
1/15/19 14:03,505
1/15/19 14:03,507
1/15/19 14:03,506
1/15/19 14:03,508
1/15/19 14:03,508
1/15/19 14:03,507
1/15/19 14:03,507
1/15/19 14:03,508
1/15/19 14:03,506
1/15/19 14:03,507
1/15/19 14:03,508
1/15/19 14:03,508
1/15/19 14:03,507
1/15/19 14:03,507
1/15/19 14:03,506
1/15/19 14:03,506
1/15/19 14:03,509
1/15/19 14:03,509
1/15/19 14:03,509
1/15/19 14:03,510
1/15/19 14:03,507
1/15/19 14:03,519
1/15/19 14:03,505
1/15/19 14:03,505
1/15/19 14:03,504
1/15/19 14:03,506
1/15/19 14:03,506
1/15/19 14:03,505
1/15/19 14:03,505
1/15/19 14:03,504
1/15/19 14:03,506
1/15/19 14:03,503
1/15/19 14:03,505
1/15/19 14:03,507
1/15/19 14:03,510
1/15/19 14:03,507
1/15/19 14:03,511
1/15/19 14:03,509
1/15/19 14:03,510
1/15/19 14:03,510
1/15/19 14:03,510
1/15/19 14:03,508
1/15/19 14:03,509
1/15/19 14:03,507
1/15/19 14:03,509
1/15/19 14:03,509
1/15/19 14:03,509
1/15/19 14:03,507
1/15/19 14:03,509
1/15/19 14:03,509
1/15/19 14:03,507
1/15/19 14:03,508
1/15/19 14:03,507
1/15/19 14:03,509
1/15/19 14:03,507
1/15/19 14:03,506
1/15/19 14:03,508
1/15/19 14:03,508
1/15/19 14:03,505
1/15/19 14:03,507
1/15/19 14:03,507
1/15/19 14:03,508
1/15/19 14:03,507
1/15/19 14:03,509
1/15/19 14:03,509
1/15/19 14:03,507
1/15/19 14:03,508
1/15/19 14:03,508
1/15/19 14:03,507
1/15/19 14:03,508
1/15/19 14:03,521
1/15/19 14:03,506
1/15/19 14:03,504
1/15/19 14:03,506
1/15/19 14:03,505
1/15/19 14:03,509
1/15/19 14:03,506
1/15/19 14:03,503
1/15/19 14:03,505
1/15/19 14:03,506
1/15/19 14:03,505
1/15/19 14:03,508
1/15/19 14:03,505
1/15/19 14:03,505
1/15/19 14:03,506
1/15/19 14:03,508
1/15/19 14:03,509
1/15/19 14:03,508
1/15/19 14:03,509
1/15/19 14:03,508
1/15/19 14:03,508
1/15/19 14:03,511
1/15/19 14:03,510
1/15/19 14:03,509
1/15/19 14:03,509
1/15/19 14:03,507
1/15/19 14:03,508
1/15/19 14:03,509
1/15/19 14:03,508
1/15/19 14:03,508
1/15/19 14:03,508
1/15/19 14:03,509
1/15/19 14:03,510
1/15/19 14:03,509
1/15/19 14:03,506
1/15/19 14:03,509
1/15/19 14:03,506
1/15/19 14:03,507
1/15/19 14:03,507
1/15/19 14:03,508
1/15/19 14:03,506
1/15/19 14:03,508
1/15/19 14:03,507
1/15/19 14:03,506
1/15/19 14:03,507
1/15/19 14:03,506
1/15/19 14:03,507
1/15/19 14:03,508
1/15/19 14:03,509
1/15/19 14:03,510
1/15/19 14:03,520
1/15/19 14:03,504
1/15/19 14:03,503
1/15/19 14:03,504
1/15/19 14:03,508
1/15/19 14:03,508
1/15/19 14:03,508
1/15/19 14:03,506
1/15/19 14:03,507
1/15/19 14:03,506
1/15/19 14:03,506
1/15/19 14:03,507
1/15/19 14:03,505
1/15/19 14:03,508
1/15/19 14:03,506
1/15/19 14:03,507
1/15/19 14:03,508
1/15/19 14:03,508
1/15/19 14:03,509
1/15/19 14:03,507
1/15/19 14:03,508
1/15/19 14:03,508
1/15/19 14:03,509
1/15/19 14:03,510
1/15/19 14:03,509
1/15/19 14:03,510
1/15/19 14:03,509
1/15/19 14:03,509
1/15/19 14:03,509
1/15/19 14:03,510
1/15/19 14:03,508
1/15/19 14:03,508
1/15/19 14:03,508
1/15/19 14:03,509
1/15/19 14:03,510
1/15/19 14:03,506
1/15/19 14:03,507
1/15/19 14:03,507
1/15/19 14:03,507
1/15/19 14:03,506
1/15/19 14:03,506
1/15/19 14:03,506
1/15/19 14:03,507
1/15/19 14:03,507
1/15/19 14:03,506
1/15/19 14:03,509
1/15/19 14:03,506
1/15/19 14:03,509
1/15/19 14:03,509
1/15/19 14:03,509
1/15/19 14:03,519
1/15/19 14:03,504
1/15/19 14:03,505
1/15/19 14:03,506
1/15/19 14:03,508
1/15/19 14:03,506
1/15/19 14:03,506
1/15/19 14:03,507
1/15/19 14:03,505
1/15/19 14:03,506
1/15/19 14:03,508
1/15/19 14:03,508
1/15/19 14:03,506
1/15/19 14:03,507
1/15/19 14:03,509
1/15/19 14:03,508
1/15/19 14:03,510
1/15/19 14:03,508
1/15/19 14:03,508
1/15/19 14:03,508
1/15/19 14:03,508
1/15/19 14:03,509
1/15/19 14:03,507
1/15/19 14:03,506
1/15/19 14:03,507
1/15/19 14:03,507
1/15/19 14:03,507
1/15/19 14:03,509
1/15/19 14:03,509
1/15/19 14:03,509
1/15/19 14:03,508
1/15/19 14:03,509
1/15/19 14:03,508
1/15/19 14:03,507
1/15/19 14:03,508
1/15/19 14:03,508
1/15/19 14:03,508
1/15/19 14:03,507
1/15/19 14:03,507
1/15/19 14:03,507
1/15/19 14:03,508
1/15/19 14:03,507
1/15/19 14:03,508
1/15/19 14:03,509
1/15/19 14:03,507
1/15/19 14:03,507
1/15/19 14:03,506
1/15/19 14:03,506
1/15/19 14:03,505
1/15/19 14:03,506
1/15/19 14:03,519
1/15/19 14:03,510
1/15/19 14:03,502
1/15/19 14:03,506
1/15/19 14:03,504
1/15/19 14:03,507
1/15/19 14:03,507
1/15/19 14:03,506
1/15/19 14:03,507
1/15/19 14:03,505
1/15/19 14:03,506
1/15/19 14:03,507
1/15/19 14:03,508
1/15/19 14:03,509
1/15/19 14:03,509
1/15/19 14:03,509
1/15/19 14:03,508
1/15/19 14:03,509
1/15/19 14:03,509
1/15/19 14:03,510
1/15/19 14:03,509
1/15/19 14:03,507
1/15/19 14:03,508
1/15/19 14:03,507
1/15/19 14:03,508
1/15/19 14:03,507
1/15/19 14:03,508
1/15/19 14:03,507
1/15/19 14:03,508
1/15/19 14:03,509
1/15/19 14:03,508
1/15/19 14:03,508
1/15/19 14:03,508
1/15/19 14:03,507
1/15/19 14:03,509
1/15/19 14:03,507
1/15/19 14:03,508
1/15/19 14:03,509
1/15/19 14:03,509
1/15/19 14:03,509
1/15/19 14:03,508
1/15/19 14:03,507
1/15/19 14:03,507
1/15/19 14:03,507
1/15/19 14:03,506
1/15/19 14:03,509
1/15/19 14:03,506
1/15/19 14:03,507
1/15/19 14:03,507
1/15/19 14:03,509
1/15/19 14:03,517
1/15/19 14:03,504
1/15/19 14:03,503
1/15/19 14:03,505
1/15/19 14:03,506
1/15/19 14:03,505
1/15/19 14:03,508
1/15/19 14:03,507
1/15/19 14:03,505
1/15/19 14:03,506
1/15/19 14:03,506
1/15/19 14:03,508
1/15/19 14:03,507
1/15/19 14:03,507
1/15/19 14:03,507
1/15/19 14:03,507
1/15/19 14:03,509
1/15/19 14:03,510
1/15/19 14:03,509
1/15/19 14:03,507
1/15/19 14:03,510
1/15/19 14:03,510
1/15/19 14:03,509
1/15/19 14:03,509
1/15/19 14:03,510
1/15/19 14:03,508
1/15/19 14:03,507
1/15/19 14:03,508
1/15/19 14:03,508
1/15/19 14:03,507
1/15/19 14:03,508
1/15/19 14:03,508
1/15/19 14:03,508
1/15/19 14:03,509
1/15/19 14:03,508
1/15/19 14:03,507
1/15/19 14:03,507
1/15/19 14:03,510
1/15/19 14:03,509
1/15/19 14:03,507
1/15/19 14:03,507
1/15/19 14:03,507
1/15/19 14:03,508
1/15/19 14:03,507
1/15/19 14:03,508
1/15/19 14:03,508
1/15/19 14:03,507
1/15/19 14:03,509
1/15/19 14:03,507
1/15/19 14:03,508
1/15/19 14:03,518
1/15/19 14:03,508
1/15/19 14:03,503
1/15/19 14:03,504
1/15/19 14:03,505
1/15/19 14:03,505
1/15/19 14:03,505
1/15/19 14:03,506
1/15/19 14:03,505
1/15/19 14:03,506
1/15/19 14:03,506
1/15/19 14:03,507
1/15/19 14:03,507
1/15/19 14:03,507
1/15/19 14:03,507
1/15/19 14:03,510
1/15/19 14:03,510
1/15/19 14:03,510
1/15/19 14:03,510
1/15/19 14:03,510
1/15/19 14:03,507
1/15/19 14:03,509
1/15/19 14:03,508
1/15/19 14:03,509
1/15/19 14:03,510
1/15/19 14:03,509
1/15/19 14:03,508
1/15/19 14:03,508
1/15/19 14:03,508
1/15/19 14:03,507
1/15/19 14:03,507
1/15/19 14:03,508
1/15/19 14:03,507
1/15/19 14:03,507
1/15/19 14:03,508
1/15/19 14:03,507
1/15/19 14:03,508
1/15/19 14:03,506
1/15/19 14:03,507
1/15/19 14:03,507
1/15/19 14:03,508
1/15/19 14:03,507
1/15/19 14:03,508
1/15/19 14:03,507
1/15/19 14:03,509
1/15/19 14:03,509
1/15/19 14:03,507
1/15/19 14:03,509
1/15/19 14:03,509
1/15/19 14:03,508
1/15/19 14:03,519
1/15/19 14:03,507
1/15/19 14:03,502
1/15/19 14:03,505
1/15/19 14:03,506
1/15/19 14:03,506
1/15/19 14:03,505
1/15/19 14:03,504
1/15/19 14:03,504
1/15/19 14:03,506
1/15/19 14:03,505
1/15/19 14:03,508
1/15/19 14:03,507
1/15/19 14:03,509
1/15/19 14:03,508
1/15/19 14:03,509
1/15/19 14:03,508
1/15/19 14:03,510
1/15/19 14:03,509
1/15/19 14:03,510
1/15/19 14:03,510
1/15/19 14:03,508
1/15/19 14:03,507
1/15/19 14:03,509
1/15/19 14:03,510
1/15/19 14:03,511
1/15/19 14:03,509
1/15/19 14:03,508
1/15/19 14:03,509
1/15/19 14:03,507
1/15/19 14:03,508
1/15/19 14:03,508
1/15/19 14:03,507
1/15/19 14:03,507
1/15/19 14:03,505
1/15/19 14:03,504
1/15/19 14:03,506
1/15/19 14:03,508
1/15/19 14:03,506
1/15/19 14:03,508
1/15/19 14:03,507
1/15/19 14:03,508
1/15/19 14:03,508
1/15/19 14:03,507
1/15/19 14:03,508
1/15/19 14:03,507
1/15/19 14:03,507
1/15/19 14:03,507
1/15/19 14:03,507
1/15/19 14:03,519
1/15/19 14:03,504
1/15/19 14:03,505
1/15/19 14:03,507
1/15/19 14:03,506
1/15/19 14:03,507
1/15/19 14:03,507
1/15/19 14:03,508
1/15/19 14:03,505
1/15/19 14:03,504
1/15/19 14:03,506
1/15/19 14:03,504
1/15/19 14:03,505
1/15/19 14:03,507
1/15/19 14:03,507
1/15/19 14:03,510
1/15/19 14:03,508
1/15/19 14:12,507
1/15/19 14:12,508
1/15/19 14:12,508
1/15/19 14:12,509
1/15/19 14:12,508
1/15/19 14:12,508
1/15/19 14:12,508
1/15/19 14:12,508
1/15/19 14:12,508
1/15/19 14:12,510
1/15/19 14:12,521
1/15/19 14:12,505
1/15/19 14:12,506
1/15/19 14:12,504
1/15/19 14:12,506
1/15/19 14:12,507
1/15/19 14:12,507
1/15/19 14:12,507
1/15/19 14:12,503
1/15/19 14:12,505
1/15/19 14:12,503
1/15/19 14:12,507
1/15/19 14:12,507
1/15/19 14:12,505
1/15/19 14:12,506
1/15/19 14:12,508
1/15/19 14:12,510
1/15/19 14:12,510
1/15/19 14:12,509
1/15/19 14:12,509
1/15/19 14:12,509
1/15/19 14:12,509
1/15/19 14:12,510
1/15/19 14:12,510
1/15/19 14:12,509
1/15/19 14:12,509
1/15/19 14:12,508
1/15/19 14:12,509
1/15/19 14:12,508
1/15/19 14:12,508
1/15/19 14:12,508
1/15/19 14:12,509
1/15/19 14:12,508
1/15/19 14:12,508
1/15/19 14:12,508
1/15/19 14:12,506
1/15/19 14:12,506
1/15/19 14:12,506
1/15/19 14:12,506
1/15/19 14:12,506
1/15/19 14:12,505
1/15/19 14:12,509
1/15/19 14:12,507
1/15/19 14:12,508
1/15/19 14:12,506
1/15/19 14:12,506
1/15/19 14:12,508
1/15/19 14:12,508
1/15/19 14:12,509
1/15/19 14:12,515
1/15/19 14:12,516
1/15/19 14:12,503
1/15/19 14:12,505
1/15/19 14:12,505
1/15/19 14:12,508
1/15/19 14:12,507
1/15/19 14:12,505
1/15/19 14:12,505
1/15/19 14:12,505
1/15/19 14:12,507
1/15/19 14:12,508
1/15/19 14:12,507
1/15/19 14:12,507
1/15/19 14:12,507
1/15/19 14:12,508
1/15/19 14:12,507
1/15/19 14:12,508
1/15/19 14:12,506
1/15/19 14:12,508
1/15/19 14:12,509
1/15/19 14:12,508
1/15/19 14:12,509
1/15/19 14:12,508
1/15/19 14:12,511
1/15/19 14:12,507
1/15/19 14:12,509
1/15/19 14:12,509
1/15/19 14:12,508
1/15/19 14:12,508
1/15/19 14:12,508
1/15/19 14:12,507
1/15/19 14:12,508
1/15/19 14:12,508
1/15/19 14:12,510
1/15/19 14:12,507
1/15/19 14:12,506
1/15/19 14:12,508
1/15/19 14:12,507
1/15/19 14:12,507
1/15/19 14:12,508
1/15/19 14:12,508
1/15/19 14:12,506
1/15/19 14:12,507
1/15/19 14:12,508
1/15/19 14:12,507
1/15/19 14:12,507
1/15/19 14:12,507
1/15/19 14:12,506
1/15/19 14:12,508
1/15/19 14:12,516
1/15/19 14:12,515
1/15/19 14:12,505
1/15/19 14:12,505
1/15/19 14:12,505
1/15/19 14:12,506
1/15/19 14:12,507
1/15/19 14:12,505
1/15/19 14:12,506
1/15/19 14:12,507
1/15/19 14:12,507
1/15/19 14:12,506
1/15/19 14:12,507
1/15/19 14:12,506
1/15/19 14:12,509
1/15/19 14:12,509
1/15/19 14:12,509
1/15/19 14:12,510
1/15/19 14:12,509
1/15/19 14:12,507
1/15/19 14:12,507
1/15/19 14:12,508
1/15/19 14:12,509
1/15/19 14:12,510
1/15/19 14:12,508
1/15/19 14:12,509
1/15/19 14:12,508
1/15/19 14:12,508
1/15/19 14:12,508
1/15/19 14:12,508
1/15/19 14:12,509
1/15/19 14:12,509
1/15/19 14:12,507
1/15/19 14:12,508
1/15/19 14:12,507
1/15/19 14:12,509
1/15/19 14:12,507
1/15/19 14:12,508
1/15/19 14:12,508
1/15/19 14:12,507
1/15/19 14:12,507
1/15/19 14:12,507
1/15/19 14:12,507
1/15/19 14:12,506
1/15/19 14:12,508
1/15/19 14:12,507
1/15/19 14:12,508
1/15/19 14:12,507
1/15/19 14:12,506
1/15/19 14:12,506
1/15/19 14:12,509
1/15/19 14:12,519
1/15/19 14:12,501
1/15/19 14:12,505
1/15/19 14:12,506
1/15/19 14:12,507
1/15/19 14:12,506
1/15/19 14:12,507
1/15/19 14:12,507
1/15/19 14:12,505
1/15/19 14:12,506
1/15/19 14:12,507
1/15/19 14:12,507
1/15/19 14:12,507
1/15/19 14:12,509
1/15/19 14:12,508
1/15/19 14:12,510
1/15/19 14:12,510
1/15/19 14:12,510
1/15/19 14:12,510
1/15/19 14:12,509
1/15/19 14:12,509
1/15/19 14:12,507
1/15/19 14:12,510
1/15/19 14:12,509
1/15/19 14:12,508
1/15/19 14:12,506
1/15/19 14:12,507
1/15/19 14:12,507
1/15/19 14:12,508
1/15/19 14:12,506
1/15/19 14:12,508
1/15/19 14:12,508
1/15/19 14:12,507
1/15/19 14:12,508
1/15/19 14:12,508
1/15/19 14:12,509
1/15/19 14:12,507
1/15/19 14:12,507
1/15/19 14:12,508
1/15/19 14:12,508
1/15/19 14:12,507
1/15/19 14:12,508
1/15/19 14:12,507
1/15/19 14:12,506
1/15/19 14:12,508
1/15/19 14:12,507
1/15/19 14:12,507
1/15/19 14:12,508
1/15/19 14:12,507
1/15/19 14:12,519
1/15/19 14:12,508
1/15/19 14:12,503
1/15/19 14:12,503
1/15/19 14:12,507
1/15/19 14:12,505
1/15/19 14:12,505
1/15/19 14:12,506
1/15/19 14:12,508
1/15/19 14:12,507
1/15/19 14:12,506
1/15/19 14:12,506
1/15/19 14:12,506
1/15/19 14:12,507
1/15/19 14:12,509
1/15/19 14:12,508
1/15/19 14:12,508
1/15/19 14:12,508
1/15/19 14:12,509
1/15/19 14:12,511
1/15/19 14:12,509
1/15/19 14:12,510
1/15/19 14:12,509
1/15/19 14:12,509
1/15/19 14:12,509
1/15/19 14:12,509
1/15/19 14:12,507
1/15/19 14:12,508
1/15/19 14:12,507
1/15/19 14:12,507
1/15/19 14:12,507
1/15/19 14:12,508
1/15/19 14:12,506
1/15/19 14:12,508
1/15/19 14:12,508
1/15/19 14:12,507
1/15/19 14:12,508
1/15/19 14:12,508
1/15/19 14:12,509
1/15/19 14:12,506
1/15/19 14:12,507
1/15/19 14:12,507
1/15/19 14:12,509
1/15/19 14:12,508
1/15/19 14:12,509
1/15/19 14:12,506
1/15/19 14:12,509
1/15/19 14:12,507
1/15/19 14:12,508
1/15/19 14:12,508
1/15/19 14:12,508
1/15/19 14:12,520
1/15/19 14:12,502
1/15/19 14:12,504
1/15/19 14:12,505
1/15/19 14:12,506
1/15/19 14:12,504
1/15/19 14:12,506
1/15/19 14:12,504
1/15/19 14:12,506
1/15/19 14:12,506
1/15/19 14:12,507
1/15/19 14:12,507
1/15/19 14:12,509
1/15/19 14:12,507
1/15/19 14:12,507
1/15/19 14:12,508
1/15/19 14:12,509
1/15/19 14:12,511
1/15/19 14:12,509
1/15/19 14:12,509
1/15/19 14:12,509
1/15/19 14:12,509
1/15/19 14:12,510
1/15/19 14:12,508
1/15/19 14:12,510
1/15/19 14:12,510
1/15/19 14:12,509
1/15/19 14:12,508
1/15/19 14:12,507
1/15/19 14:12,509
1/15/19 14:12,507
1/15/19 14:12,507
1/15/19 14:12,506
1/15/19 14:12,506
1/15/19 14:12,507
1/15/19 14:12,508
1/15/19 14:12,508
1/15/19 14:12,505
1/15/19 14:12,506
1/15/19 14:12,507
1/15/19 14:12,508
1/15/19 14:12,507
1/15/19 14:12,508
1/15/19 14:12,510
1/15/19 14:12,509
1/15/19 14:12,508
1/15/19 14:12,507
1/15/19 14:12,507
1/15/19 14:12,508
1/15/19 14:12,510
1/15/19 14:12,521
1/15/19 14:12,503
1/15/19 14:12,505
1/15/19 14:12,505
1/15/19 14:12,507
1/15/19 14:12,506
1/15/19 14:12,506
1/15/19 14:12,504
1/15/19 14:12,505
1/15/19 14:12,506
1/15/19 14:12,505
1/15/19 14:12,508
1/15/19 14:12,507
1/15/19 14:12,506
1/15/19 14:12,506
1/15/19 14:12,510
1/15/19 14:12,510
1/15/19 14:12,510
1/15/19 14:12,509
1/15/19 14:12,509
1/15/19 14:12,511
1/15/19 14:12,510
1/15/19 14:12,507
1/15/19 14:12,510
1/15/19 14:12,507
1/15/19 14:12,508
1/15/19 14:12,509
1/15/19 14:12,510
1/15/19 14:12,509
1/15/19 14:12,507
1/15/19 14:12,506
1/15/19 14:12,504
1/15/19 14:12,508
1/15/19 14:12,508
1/15/19 14:12,508
1/15/19 14:12,507
1/15/19 14:12,507
1/15/19 14:12,507
1/15/19 14:12,507
1/15/19 14:12,506
1/15/19 14:12,507
1/15/19 14:12,507
1/15/19 14:12,507
1/15/19 14:12,509
1/15/19 14:12,508
1/15/19 14:12,510
1/15/19 14:12,507
1/15/19 14:12,509
1/15/19 14:12,507
1/15/19 14:12,519
1/15/19 14:12,505
1/15/19 14:12,502
1/15/19 14:12,503
1/15/19 14:12,507
1/15/19 14:12,505
1/15/19 14:12,505
1/15/19 14:12,507
1/15/19 14:12,506
1/15/19 14:12,506
1/15/19 14:12,506
1/15/19 14:12,509
1/15/19 14:12,509
1/15/19 14:12,508
1/15/19 14:12,507
1/15/19 14:12,508
1/15/19 14:12,509
1/15/19 14:12,510
1/15/19 14:12,510
1/15/19 14:12,508
1/15/19 14:12,508
1/15/19 14:12,509
1/15/19 14:12,509
1/15/19 14:12,509
1/15/19 14:12,508
1/15/19 14:12,508
1/15/19 14:12,509
1/15/19 14:12,510
1/15/19 14:12,510
1/15/19 14:12,509
1/15/19 14:12,509
1/15/19 14:12,510
1/15/19 14:12,507
1/15/19 14:12,507
1/15/19 14:12,509
1/15/19 14:12,508
1/15/19 14:12,506
1/15/19 14:12,506
1/15/19 14:12,507
1/15/19 14:12,507
1/15/19 14:12,507
1/15/19 14:12,505
1/15/19 14:12,505
1/15/19 14:12,507
1/15/19 14:12,507
1/15/19 14:12,508
1/15/19 14:12,508
1/15/19 14:12,509
1/15/19 14:12,507
1/15/19 14:12,510
1/15/19 14:12,520
1/15/19 14:12,503
1/15/19 14:12,502
1/15/19 14:12,506
1/15/19 14:12,509
1/15/19 14:12,507
1/15/19 14:12,508
1/15/19 14:12,504
1/15/19 14:12,507
1/15/19 14:12,506
1/15/19 14:12,507
1/15/19 14:12,505
1/15/19 14:12,506
1/15/19 14:12,506
1/15/19 14:12,508
1/15/19 14:12,507
1/15/19 14:12,509
1/15/19 14:12,509
1/15/19 14:12,510
1/15/19 14:12,508
1/15/19 14:12,509
1/15/19 14:12,508
1/15/19 14:12,509
1/15/19 14:12,509
1/15/19 14:12,507
1/15/19 14:12,509
1/15/19 14:12,508
1/15/19 14:12,509
1/15/19 14:12,508
1/15/19 14:12,508
1/15/19 14:12,509
1/15/19 14:12,509
1/15/19 14:12,507
1/15/19 14:12,508
1/15/19 14:12,510
1/15/19 14:12,507
1/15/19 14:12,507
1/15/19 14:12,508
1/15/19 14:12,507
1/15/19 14:12,506
1/15/19 14:12,508
1/15/19 14:12,506
1/15/19 14:12,509
1/15/19 14:12,506
1/15/19 14:12,507
1/15/19 14:12,507
1/15/19 14:12,508
1/15/19 14:12,506
1/15/19 14:12,507
1/15/19 14:12,517
1/15/19 14:12,509
1/15/19 14:12,501
1/15/19 14:12,503
1/15/19 14:12,505
1/15/19 14:12,507
1/15/19 14:12,507
1/15/19 14:12,507
1/15/19 14:12,504
1/15/19 14:12,506
1/15/19 14:12,506
1/15/19 14:12,508
1/15/19 14:12,508
1/15/19 14:12,508
1/15/19 14:12,509
1/15/19 14:12,509
1/15/19 14:12,509
1/15/19 14:12,507
1/15/19 14:12,509
1/15/19 14:12,508
1/15/19 14:12,511
1/15/19 14:12,508
1/15/19 14:12,507
1/15/19 14:12,508
1/15/19 14:12,509
1/15/19 14:12,508
1/15/19 14:12,508
1/15/19 14:12,507
1/15/19 14:12,508
1/15/19 14:12,508
1/15/19 14:12,508
1/15/19 14:12,508
1/15/19 14:12,508
1/15/19 14:12,509
1/15/19 14:12,509
1/15/19 14:12,508
1/15/19 14:12,506
1/15/19 14:12,509
1/15/19 14:12,508
1/15/19 14:12,508
1/15/19 14:12,507
1/15/19 14:12,509
1/15/19 14:12,508
1/15/19 14:12,508
1/15/19 14:12,507
1/15/19 14:12,506
1/15/19 14:12,508
1/15/19 14:12,507
1/15/19 14:12,506
1/15/19 14:12,507
1/15/19 14:12,509
1/15/19 14:12,517
1/15/19 14:12,502
1/15/19 14:12,505
1/15/19 14:12,506
1/15/19 14:12,508
1/15/19 14:12,507
1/15/19 14:12,505
1/15/19 14:12,505
1/15/19 14:12,506
1/15/19 14:12,506
1/15/19 14:12,504
1/15/19 14:12,507
1/15/19 14:12,508
1/15/19 14:12,508
1/15/19 14:12,508
1/15/19 14:12,509
1/15/19 14:12,509
1/15/19 14:12,510
1/15/19 14:12,509
1/15/19 14:12,509
1/15/19 14:12,509
1/15/19 14:12,508
1/15/19 14:12,509
1/15/19 14:12,507
1/15/19 14:12,508
1/15/19 14:12,508
1/15/19 14:12,508
1/15/19 14:12,508
1/15/19 14:12,507
1/15/19 14:12,506
1/15/19 14:12,509
1/15/19 14:12,507
1/15/19 14:12,507
1/15/19 14:12,508
1/15/19 14:12,507
1/15/19 14:12,509
1/15/19 14:12,508
1/15/19 14:12,509
1/15/19 14:12,507
1/15/19 14:12,507
1/15/19 14:12,507
1/15/19 14:12,508
1/15/19 14:12,508
1/15/19 14:12,509
1/15/19 14:12,508
1/15/19 14:12,508
1/15/19 14:12,506
1/15/19 14:12,507
1/15/19 14:12,507
1/15/19 14:12,519
1/15/19 14:12,509
1/15/19 14:12,501
1/15/19 14:12,504
1/15/19 14:12,506
1/15/19 14:12,504
1/15/19 14:12,507
1/15/19 14:12,505
1/15/19 14:12,505
1/15/19 14:12,506
1/15/19 14:12,507
1/15/19 14:12,505
1/15/19 14:12,508
1/15/19 14:12,509
1/15/19 14:12,510
1/15/19 14:12,508
1/15/19 14:12,508
1/15/19 14:12,508
1/15/19 14:12,510
1/15/19 14:12,508
1/15/19 14:12,510
1/15/19 14:12,510
1/15/19 14:12,509
1/15/19 14:12,508
1/15/19 14:12,509
1/15/19 14:12,507
1/15/19 14:12,509
1/15/19 14:12,509
1/15/19 14:12,507
1/15/19 14:12,507
1/15/19 14:12,507
1/15/19 14:12,506
1/15/19 14:12,507
1/15/19 14:12,507
1/15/19 14:12,507
1/15/19 14:12,507
1/15/19 14:12,506
1/15/19 14:12,507
1/15/19 14:12,507
1/15/19 14:12,507
1/15/19 14:12,508
1/15/19 14:12,510
1/15/19 14:21,511
1/15/19 14:21,512
1/15/19 14:21,508
1/15/19 14:21,510
1/15/19 14:21,507
1/15/19 14:21,510
1/15/19 14:21,510
1/15/19 14:21,507
1/15/19 14:21,510
1/15/19 14:21,509
1/15/19 14:21,507
1/15/19 14:21,507
1/15/19 14:21,507
1/15/19 14:21,509
1/15/19 14:21,508
1/15/19 14:21,506
1/15/19 14:21,508
1/15/19 14:21,505
1/15/19 14:21,506
1/15/19 14:21,504
1/15/19 14:21,507
1/15/19 14:21,509
1/15/19 14:21,506
1/15/19 14:21,509
1/15/19 14:21,508
1/15/19 14:21,519
1/15/19 14:21,505
1/15/19 14:21,502
1/15/19 14:21,506
1/15/19 14:21,506
1/15/19 14:21,507
1/15/19 14:21,506
1/15/19 14:21,504
1/15/19 14:21,508
1/15/19 14:21,506
1/15/19 14:21,509
1/15/19 14:21,510
1/15/19 14:21,507
1/15/19 14:21,508
1/15/19 14:21,507
1/15/19 14:21,508
1/15/19 14:21,506
1/15/19 14:21,508
1/15/19 14:21,510
1/15/19 14:21,507
1/15/19 14:21,507
1/15/19 14:21,510
1/15/19 14:21,507
1/15/19 14:21,509
1/15/19 14:21,506
1/15/19 14:21,511
1/15/19 14:21,507
1/15/19 14:21,508
1/15/19 14:21,509
1/15/19 14:21,508
1/15/19 14:21,511
1/15/19 14:21,512
1/15/19 14:21,507
1/15/19 14:21,507
1/15/19 14:21,507
1/15/19 14:21,509
1/15/19 14:21,505
1/15/19 14:21,507
1/15/19 14:21,510
1/15/19 14:21,507
1/15/19 14:21,506
1/15/19 14:21,510
1/15/19 14:21,508
1/15/19 14:21,506
1/15/19 14:21,503
1/15/19 14:21,510
1/15/19 14:21,507
1/15/19 14:21,504
1/15/19 14:21,509
1/15/19 14:21,506
1/15/19 14:21,517
1/15/19 14:21,511
1/15/19 14:21,505
1/15/19 14:21,505
1/15/19 14:21,505
1/15/19 14:21,508
1/15/19 14:21,506
1/15/19 14:21,506
1/15/19 14:21,505
1/15/19 14:21,506
1/15/19 14:21,505
1/15/19 14:21,505
1/15/19 14:21,508
1/15/19 14:21,511
1/15/19 14:21,507
1/15/19 14:21,509
1/15/19 14:21,508
1/15/19 14:21,511
1/15/19 14:21,511
1/15/19 14:21,509
1/15/19 14:21,510
1/15/19 14:21,509
1/15/19 14:21,505
1/15/19 14:21,509
1/15/19 14:21,509
1/15/19 14:21,508
1/15/19 14:21,508
1/15/19 14:21,507
1/15/19 14:21,509
1/15/19 14:21,506
1/15/19 14:21,507
1/15/19 14:21,506
1/15/19 14:21,509
1/15/19 14:21,511
1/15/19 14:21,506
1/15/19 14:21,509
1/15/19 14:21,508
1/15/19 14:21,509
1/15/19 14:21,507
1/15/19 14:21,508
1/15/19 14:21,509
1/15/19 14:21,505
1/15/19 14:21,509
1/15/19 14:21,507
1/15/19 14:21,505
1/15/19 14:21,508
1/15/19 14:21,509
1/15/19 14:21,508
1/15/19 14:21,508
1/15/19 14:21,509
1/15/19 14:21,515
1/15/19 14:21,516
1/15/19 14:21,501
1/15/19 14:21,504
1/15/19 14:21,499
1/15/19 14:21,508
1/15/19 14:21,506
1/15/19 14:21,506
1/15/19 14:21,508
1/15/19 14:21,508
1/15/19 14:21,510
1/15/19 14:21,506
1/15/19 14:21,505
1/15/19 14:21,507
1/15/19 14:21,508
1/15/19 14:21,512
1/15/19 14:21,508
1/15/19 14:21,510
1/15/19 14:21,509
1/15/19 14:21,507
1/15/19 14:21,509
1/15/19 14:21,507
1/15/19 14:21,509
1/15/19 14:21,508
1/15/19 14:21,507
1/15/19 14:21,507
1/15/19 14:21,507
1/15/19 14:21,511
1/15/19 14:21,505
1/15/19 14:21,506
1/15/19 14:21,510
1/15/19 14:21,506
1/15/19 14:21,509
1/15/19 14:21,508
1/15/19 14:21,508
1/15/19 14:21,507
1/15/19 14:21,507
1/15/19 14:21,510
1/15/19 14:21,506
1/15/19 14:21,506
1/15/19 14:21,505
1/15/19 14:21,506
1/15/19 14:21,507
1/15/19 14:21,510
1/15/19 14:21,510
1/15/19 14:21,509
1/15/19 14:21,506
1/15/19 14:21,510
1/15/19 14:21,508
1/15/19 14:21,506
1/15/19 14:21,509
1/15/19 14:21,519
1/15/19 14:21,505
1/15/19 14:21,504
1/15/19 14:21,504
1/15/19 14:21,506
1/15/19 14:21,504
1/15/19 14:21,508
1/15/19 14:21,506
1/15/19 14:21,504
1/15/19 14:21,506
1/15/19 14:21,505
1/15/19 14:21,508
1/15/19 14:21,505
1/15/19 14:21,508
1/15/19 14:21,510
1/15/19 14:21,507
1/15/19 14:21,512
1/15/19 14:21,507
1/15/19 14:21,510
1/15/19 14:21,510
1/15/19 14:21,510
1/15/19 14:21,511
1/15/19 14:21,507
1/15/19 14:21,509
1/15/19 14:21,509
1/15/19 14:21,508
1/15/19 14:21,510
1/15/19 14:21,509
1/15/19 14:21,508
1/15/19 14:21,507
1/15/19 14:21,502
1/15/19 14:21,505
1/15/19 14:21,509
1/15/19 14:21,509
1/15/19 14:21,507
1/15/19 14:21,506
1/15/19 14:21,507
1/15/19 14:21,508
1/15/19 14:21,509
1/15/19 14:21,508
1/15/19 14:21,507
1/15/19 14:21,510
1/15/19 14:21,509
1/15/19 14:21,509
1/15/19 14:21,510
1/15/19 14:21,505
1/15/19 14:21,508
1/15/19 14:21,508
1/15/19 14:21,506
1/15/19 14:21,517
1/15/19 14:21,513
1/15/19 14:21,502
1/15/19 14:21,504
1/15/19 14:21,505
1/15/19 14:21,505
1/15/19 14:21,504
1/15/19 14:21,504
1/15/19 14:21,505
1/15/19 14:21,506
1/15/19 14:21,506
1/15/19 14:21,507
1/15/19 14:21,507
1/15/19 14:21,507
1/15/19 14:21,509
1/15/19 14:21,511
1/15/19 14:21,508
1/15/19 14:21,509
1/15/19 14:21,507
1/15/19 14:21,509
1/15/19 14:21,510
1/15/19 14:21,507
1/15/19 14:21,511
1/15/19 14:21,507
1/15/19 14:21,510
1/15/19 14:21,511
1/15/19 14:21,508
1/15/19 14:21,508
1/15/19 14:21,507
1/15/19 14:21,508
1/15/19 14:21,507
1/15/19 14:21,510
1/15/19 14:21,508
1/15/19 14:21,506
1/15/19 14:21,508
1/15/19 14:21,507
1/15/19 14:21,507
1/15/19 14:21,507
1/15/19 14:21,506
1/15/19 14:21,508
1/15/19 14:21,506
1/15/19 14:21,507
1/15/19 14:21,509
1/15/19 14:21,508
1/15/19 14:21,508
1/15/19 14:21,506
1/15/19 14:21,509
1/15/19 14:21,508
1/15/19 14:21,506
1/15/19 14:21,510
1/15/19 14:21,520
1/15/19 14:21,509
1/15/19 14:21,504
1/15/19 14:21,504
1/15/19 14:21,506
1/15/19 14:21,506
1/15/19 14:21,506
1/15/19 14:21,506
1/15/19 14:21,504
1/15/19 14:21,505
1/15/19 14:21,506
1/15/19 14:21,504
1/15/19 14:21,506
1/15/19 14:21,506
1/15/19 14:21,507
1/15/19 14:21,508
1/15/19 14:21,508
1/15/19 14:21,510
1/15/19 14:21,510
1/15/19 14:21,510
1/15/19 14:21,508
1/15/19 14:21,508
1/15/19 14:21,510
1/15/19 14:21,509
1/15/19 14:21,511
1/15/19 14:21,508
1/15/19 14:21,509
1/15/19 14:21,508
1/15/19 14:21,508
1/15/19 14:21,511
1/15/19 14:21,507
1/15/19 14:21,509
1/15/19 14:21,507
1/15/19 14:21,508
1/15/19 14:21,510
1/15/19 14:21,507
1/15/19 14:21,508
1/15/19 14:21,507
1/15/19 14:21,504
1/15/19 14:21,507
1/15/19 14:21,504
1/15/19 14:21,506
1/15/19 14:21,507
1/15/19 14:21,507
1/15/19 14:21,509
1/15/19 14:21,505
1/15/19 14:21,508
1/15/19 14:21,509
1/15/19 14:21,508
1/15/19 14:21,512
1/15/19 14:21,521
1/15/19 14:21,506
1/15/19 14:21,502
1/15/19 14:21,504
1/15/19 14:21,506
1/15/19 14:21,506
1/15/19 14:21,506
1/15/19 14:21,506
1/15/19 14:21,506
1/15/19 14:21,508
1/15/19 14:21,505
1/15/19 14:21,508
1/15/19 14:21,506
1/15/19 14:21,505
1/15/19 14:21,507
1/15/19 14:21,507
1/15/19 14:21,509
1/15/19 14:21,510
1/15/19 14:21,508
1/15/19 14:21,509
1/15/19 14:21,507
1/15/19 14:21,508
1/15/19 14:21,509
1/15/19 14:21,510
1/15/19 14:21,510
1/15/19 14:21,507
1/15/19 14:21,510
1/15/19 14:21,508
1/15/19 14:21,510
1/15/19 14:21,507
1/15/19 14:21,508
1/15/19 14:21,510
1/15/19 14:21,508
1/15/19 14:21,507
1/15/19 14:21,508
1/15/19 14:21,505
1/15/19 14:21,508
1/15/19 14:21,506
1/15/19 14:21,507
1/15/19 14:21,510
1/15/19 14:21,506
1/15/19 14:21,507
1/15/19 14:21,505
1/15/19 14:21,505
1/15/19 14:21,507
1/15/19 14:21,506
1/15/19 14:21,510
1/15/19 14:21,509
1/15/19 14:21,509
1/15/19 14:21,508
1/15/19 14:21,518
1/15/19 14:21,510
1/15/19 14:21,502
1/15/19 14:21,506
1/15/19 14:21,507
1/15/19 14:21,504
1/15/19 14:21,507
1/15/19 14:21,504
1/15/19 14:21,506
1/15/19 14:21,507
1/15/19 14:21,506
1/15/19 14:21,509
1/15/19 14:21,508
1/15/19 14:21,507
1/15/19 14:21,508
1/15/19 14:21,509
1/15/19 14:21,509
1/15/19 14:21,507
1/15/19 14:21,508
1/15/19 14:21,509
1/15/19 14:21,508
1/15/19 14:21,509
1/15/19 14:21,509
1/15/19 14:21,506
1/15/19 14:21,510
1/15/19 14:21,507
1/15/19 14:21,510
1/15/19 14:21,509
1/15/19 14:21,509
1/15/19 14:21,508
1/15/19 14:21,507
1/15/19 14:21,508
1/15/19 14:21,506
1/15/19 14:21,508
1/15/19 14:21,508
1/15/19 14:21,506
1/15/19 14:21,510
1/15/19 14:21,507
1/15/19 14:21,508
1/15/19 14:21,507
1/15/19 14:21,505
1/15/19 14:21,507
1/15/19 14:21,507
1/15/19 14:21,507
1/15/19 14:21,507
1/15/19 14:21,506
1/15/19 14:21,508
1/15/19 14:21,507
1/15/19 14:21,508
1/15/19 14:21,505
1/15/19 14:21,520
1/15/19 14:21,511
1/15/19 14:21,499
1/15/19 14:21,503
1/15/19 14:21,507
1/15/19 14:21,508
1/15/19 14:21,509
1/15/19 14:21,506
1/15/19 14:21,506
1/15/19 14:21,507
1/15/19 14:21,504
1/15/19 14:21,507
1/15/19 14:21,508
1/15/19 14:21,510
1/15/19 14:21,507
1/15/19 14:21,509
1/15/19 14:21,508
1/15/19 14:21,508
1/15/19 14:21,509
1/15/19 14:21,510
1/15/19 14:21,508
1/15/19 14:21,506
1/15/19 14:21,507
1/15/19 14:21,507
1/15/19 14:21,508
1/15/19 14:21,508
1/15/19 14:21,510
1/15/19 14:21,509
1/15/19 14:21,508
1/15/19 14:21,508
1/15/19 14:21,508
1/15/19 14:21,511
1/15/19 14:21,508
1/15/19 14:21,510
1/15/19 14:21,509
1/15/19 14:21,506
1/15/19 14:21,509
1/15/19 14:21,506
1/15/19 14:21,508
1/15/19 14:21,509
1/15/19 14:21,506
1/15/19 14:21,508
1/15/19 14:21,505
1/15/19 14:21,507
1/15/19 14:21,507
1/15/19 14:21,507
1/15/19 14:21,508
1/15/19 14:21,506
1/15/19 14:21,508
1/15/19 14:21,506
1/15/19 14:21,515
1/15/19 14:21,515
1/15/19 14:21,499
1/15/19 14:21,505
1/15/19 14:21,504
1/15/19 14:21,508
1/15/19 14:21,509
1/15/19 14:21,506
1/15/19 14:21,507
1/15/19 14:21,505
1/15/19 14:21,505
1/15/19 14:21,508
1/15/19 14:21,505
1/15/19 14:21,508
1/15/19 14:21,506
1/15/19 14:21,509
1/15/19 14:21,509
1/15/19 14:21,509
1/15/19 14:21,510
1/15/19 14:21,509
1/15/19 14:21,508
1/15/19 14:21,510
1/15/19 14:21,507
1/15/19 14:21,509
1/15/19 14:21,509
1/15/19 14:21,508
1/15/19 14:21,508
1/15/19 14:21,508
1/15/19 14:21,508
1/15/19 14:21,506
1/15/19 14:21,506
1/15/19 14:21,508
1/15/19 14:21,508
1/15/19 14:21,508
1/15/19 14:21,508
1/15/19 14:21,508
1/15/19 14:21,508
1/15/19 14:21,508
1/15/19 14:21,509
1/15/19 14:21,507
1/15/19 14:21,508
1/15/19 14:21,507
1/15/19 14:21,507
1/15/19 14:21,509
1/15/19 14:21,507
1/15/19 14:21,508
1/15/19 14:21,508
1/15/19 14:21,507
1/15/19 14:21,509
1/15/19 14:21,505
1/15/19 14:21,510
1/15/19 14:21,519
1/15/19 14:21,502
1/15/19 14:21,505
1/15/19 14:21,502
1/15/19 14:21,505
1/15/19 14:21,507
1/15/19 14:21,506
1/15/19 14:21,506
1/15/19 14:21,504
1/15/19 14:21,505
1/15/19 14:21,507
1/15/19 14:21,509
1/15/19 14:21,510
1/15/19 14:21,504
1/15/19 14:21,509
1/15/19 14:21,509
1/15/19 14:21,508
1/15/19 14:21,514
1/15/19 14:21,509
1/15/19 14:21,512
1/15/19 14:21,509
1/15/19 14:21,509
1/15/19 14:21,510
1/15/19 14:21,507
1/15/19 14:21,507
1/15/19 14:21,508
1/15/19 14:21,508
1/15/19 14:21,509
1/15/19 14:21,506
1/15/19 14:21,508
1/15/19 14:21,506
1/15/19 14:21,507
1/15/19 14:21,508
1/15/19 14:21,506
1/15/19 14:21,509
1/15/19 14:21,508
1/15/19 14:21,507
1/15/19 14:21,507
1/15/19 14:21,505
1/15/19 14:21,507
1/15/19 14:21,509
1/15/19 14:21,506
1/15/19 14:21,506
1/15/19 14:21,507
1/15/19 14:21,509
1/15/19 14:21,506
1/15/19 14:21,508
1/15/19 14:21,510
1/15/19 14:21,507
1/15/19 14:21,521
1/15/19 14:21,506
1/15/19 14:21,503
1/15/19 14:21,505
1/15/19 14:21,507
1/15/19 14:21,506
1/15/19 14:21,507
1/15/19 14:21,505
1/15/19 14:21,503
1/15/19 14:21,504
1/15/19 14:21,506
1/15/19 14:21,507
1/15/19 14:21,508
1/15/19 14:21,509
1/15/19 14:21,508
1/15/19 14:21,510
1/15/19 14:21,510
1/15/19 14:21,509
1/15/19 14:21,510
1/15/19 14:21,509
1/15/19 14:21,510
1/15/19 14:21,509
1/15/19 14:21,510
1/15/19 14:21,511
1/15/19 14:21,509
1/15/19 14:30,507
1/15/19 14:30,507
1/15/19 14:30,505
1/15/19 14:30,506
1/15/19 14:30,506
1/15/19 14:30,507
1/15/19 14:30,508
1/15/19 14:30,509
1/15/19 14:30,509
1/15/19 14:30,509
1/15/19 14:30,509
1/15/19 14:30,510
1/15/19 14:30,509
1/15/19 14:30,510
1/15/19 14:30,510
1/15/19 14:30,510
1/15/19 14:30,509
1/15/19 14:30,507
1/15/19 14:30,509
1/15/19 14:30,507
1/15/19 14:30,506
1/15/19 14:30,507
1/15/19 14:30,507
1/15/19 14:30,505
1/15/19 14:30,509
1/15/19 14:30,508
1/15/19 14:30,509
1/15/19 14:30,508
1/15/19 14:30,509
1/15/19 14:30,508
1/15/19 14:30,509
1/15/19 14:30,507
1/15/19 14:30,508
1/15/19 14:30,507
1/15/19 14:30,509
1/15/19 14:30,507
1/15/19 14:30,508
1/15/19 14:30,507
1/15/19 14:30,507
1/15/19 14:30,508
1/15/19 14:30,508
1/15/19 14:30,508
1/15/19 14:30,506
1/15/19 14:30,519
1/15/19 14:30,505
1/15/19 14:30,503
1/15/19 14:30,503
1/15/19 14:30,505
1/15/19 14:30,506
1/15/19 14:30,506
1/15/19 14:30,506
1/15/19 14:30,505
1/15/19 14:30,505
1/15/19 14:30,506
1/15/19 14:30,506
1/15/19 14:30,507
1/15/19 14:30,508
1/15/19 14:30,507
1/15/19 14:30,509
1/15/19 14:30,509
1/15/19 14:30,509
1/15/19 14:30,508
1/15/19 14:30,509
1/15/19 14:30,510
1/15/19 14:30,508
1/15/19 14:30,509
1/15/19 14:30,509
1/15/19 14:30,508
1/15/19 14:30,509
1/15/19 14:30,509
1/15/19 14:30,506
1/15/19 14:30,507
1/15/19 14:30,508
1/15/19 14:30,505
1/15/19 14:30,507
1/15/19 14:30,508
1/15/19 14:30,506
1/15/19 14:30,508
1/15/19 14:30,508
1/15/19 14:30,508
1/15/19 14:30,508
1/15/19 14:30,507
1/15/19 14:30,508
1/15/19 14:30,507
1/15/19 14:30,508
1/15/19 14:30,508
1/15/19 14:30,508
1/15/19 14:30,507
1/15/19 14:30,507
1/15/19 14:30,509
1/15/19 14:30,508
1/15/19 14:30,507
1/15/19 14:30,512
1/15/19 14:30,518
1/15/19 14:30,504
1/15/19 14:30,505
1/15/19 14:30,506
1/15/19 14:30,505
1/15/19 14:30,508
1/15/19 14:30,505
1/15/19 14:30,504
1/15/19 14:30,504
1/15/19 14:30,506
1/15/19 14:30,505
1/15/19 14:30,506
1/15/19 14:30,509
1/15/19 14:30,508
1/15/19 14:30,508
1/15/19 14:30,508
1/15/19 14:30,509
1/15/19 14:30,509
1/15/19 14:30,510
1/15/19 14:30,510
1/15/19 14:30,511
1/15/19 14:30,510
1/15/19 14:30,510
1/15/19 14:30,508
1/15/19 14:30,509
1/15/19 14:30,508
1/15/19 14:30,511
1/15/19 14:30,509
1/15/19 14:30,507
1/15/19 14:30,508
1/15/19 14:30,506
1/15/19 14:30,506
1/15/19 14:30,507
1/15/19 14:30,508
1/15/19 14:30,507
1/15/19 14:30,510
1/15/19 14:30,506
1/15/19 14:30,507
1/15/19 14:30,507
1/15/19 14:30,509
1/15/19 14:30,507
1/15/19 14:30,508
1/15/19 14:30,508
1/15/19 14:30,508
1/15/19 14:30,509
1/15/19 14:30,508
1/15/19 14:30,507
1/15/19 14:30,509
1/15/19 14:30,512
1/15/19 14:30,518
1/15/19 14:30,503
1/15/19 14:30,504
1/15/19 14:30,506
1/15/19 14:30,507
1/15/19 14:30,507
1/15/19 14:30,506
1/15/19 14:30,506
1/15/19 14:30,507
1/15/19 14:30,503
1/15/19 14:30,507
1/15/19 14:30,506
1/15/19 14:30,508
1/15/19 14:30,507
1/15/19 14:30,508
1/15/19 14:30,508
1/15/19 14:30,509
1/15/19 14:30,508
1/15/19 14:30,509
1/15/19 14:30,511
1/15/19 14:30,509
1/15/19 14:30,509
1/15/19 14:30,508
1/15/19 14:30,509
1/15/19 14:30,509
1/15/19 14:30,509
1/15/19 14:30,509
1/15/19 14:30,509
1/15/19 14:30,509
1/15/19 14:30,508
1/15/19 14:30,508
1/15/19 14:30,507
1/15/19 14:30,507
1/15/19 14:30,506
1/15/19 14:30,508
1/15/19 14:30,507
1/15/19 14:30,506
1/15/19 14:30,507
1/15/19 14:30,507
1/15/19 14:30,507
1/15/19 14:30,506
1/15/19 14:30,506
1/15/19 14:30,508
1/15/19 14:30,509
1/15/19 14:30,507
1/15/19 14:30,509
1/15/19 14:30,509
1/15/19 14:30,507
1/15/19 14:30,508
1/15/19 14:30,520
1/15/19 14:30,504
1/15/19 14:30,501
1/15/19 14:30,505
1/15/19 14:30,508
1/15/19 14:30,507
1/15/19 14:30,507
1/15/19 14:30,505
1/15/19 14:30,505
1/15/19 14:30,505
1/15/19 14:30,505
1/15/19 14:30,506
1/15/19 14:30,506
1/15/19 14:30,508
1/15/19 14:30,508
1/15/19 14:30,507
1/15/19 14:30,508
1/15/19 14:30,509
1/15/19 14:30,510
1/15/19 14:30,510
1/15/19 14:30,508
1/15/19 14:30,510
1/15/19 14:30,509
1/15/19 14:30,508
1/15/19 14:30,509
1/15/19 14:30,508
1/15/19 14:30,510
1/15/19 14:30,508
1/15/19 14:30,508
1/15/19 14:30,508
1/15/19 14:30,508
1/15/19 14:30,507
1/15/19 14:30,509
1/15/19 14:30,510
1/15/19 14:30,509
1/15/19 14:30,507
1/15/19 14:30,508
1/15/19 14:30,506
1/15/19 14:30,507
1/15/19 14:30,506
1/15/19 14:30,506
1/15/19 14:30,505
1/15/19 14:30,507
1/15/19 14:30,508
1/15/19 14:30,507
1/15/19 14:30,507
1/15/19 14:30,508
1/15/19 14:30,507
1/15/19 14:30,508
1/15/19 14:30,514
1/15/19 14:30,517
1/15/19 14:30,502
1/15/19 14:30,504
1/15/19 14:30,506
1/15/19 14:30,507
1/15/19 14:30,508
1/15/19 14:30,505
1/15/19 14:30,506
1/15/19 14:30,505
1/15/19 14:30,505
1/15/19 14:30,506
1/15/19 14:30,509
1/15/19 14:30,507
1/15/19 14:30,508
1/15/19 14:30,509
1/15/19 14:30,508
1/15/19 14:30,509
1/15/19 14:30,507
1/15/19 14:30,508
1/15/19 14:30,507
1/15/19 14:30,509
1/15/19 14:30,508
1/15/19 14:30,509
1/15/19 14:30,508
1/15/19 14:30,509
1/15/19 14:30,509
1/15/19 14:30,506
1/15/19 14:30,508
1/15/19 14:30,508
1/15/19 14:30,508
1/15/19 14:30,507
1/15/19 14:30,509
1/15/19 14:30,508
1/15/19 14:30,507
1/15/19 14:30,509
1/15/19 14:30,508
1/15/19 14:30,508
1/15/19 14:30,507
1/15/19 14:30,508
1/15/19 14:30,506
1/15/19 14:30,507
1/15/19 14:30,508
1/15/19 14:30,507
1/15/19 14:30,507
1/15/19 14:30,507
1/15/19 14:30,507
1/15/19 14:30,509
1/15/19 14:30,506
1/15/19 14:30,507
1/15/19 14:30,508
1/15/19 14:30,521
1/15/19 14:30,503
1/15/19 14:30,504
1/15/19 14:30,505
1/15/19 14:30,508
1/15/19 14:30,506
1/15/19 14:30,504
1/15/19 14:30,505
1/15/19 14:30,508
1/15/19 14:30,507
1/15/19 14:30,506
1/15/19 14:30,508
1/15/19 14:30,509
1/15/19 14:30,505
1/15/19 14:30,509
1/15/19 14:30,507
1/15/19 14:30,509
1/15/19 14:30,509
1/15/19 14:30,509
1/15/19 14:30,508
1/15/19 14:30,507
1/15/19 14:30,509
1/15/19 14:30,507
1/15/19 14:30,508
1/15/19 14:30,506
1/15/19 14:30,511
1/15/19 14:30,509
1/15/19 14:30,508
1/15/19 14:30,508
1/15/19 14:30,508
1/15/19 14:30,506
1/15/19 14:30,507
1/15/19 14:30,509
1/15/19 14:30,508
1/15/19 14:30,509
1/15/19 14:30,510
1/15/19 14:30,507
1/15/19 14:30,507
1/15/19 14:30,507
1/15/19 14:30,508
1/15/19 14:30,506
1/15/19 14:30,508
1/15/19 14:30,507
1/15/19 14:30,507
1/15/19 14:30,508
1/15/19 14:30,507
1/15/19 14:30,506
1/15/19 14:30,509
1/15/19 14:30,508
1/15/19 14:30,508
1/15/19 14:30,519
1/15/19 14:30,507
1/15/19 14:30,501
1/15/19 14:30,505
1/15/19 14:30,505
1/15/19 14:30,508
1/15/19 14:30,507
1/15/19 14:30,506
1/15/19 14:30,506
1/15/19 14:30,506
1/15/19 14:30,507
1/15/19 14:30,507
1/15/19 14:30,507
1/15/19 14:30,507
1/15/19 14:30,506
1/15/19 14:30,507
1/15/19 14:30,508
1/15/19 14:30,510
1/15/19 14:30,511
1/15/19 14:30,508
1/15/19 14:30,508
1/15/19 14:30,511
1/15/19 14:30,509
1/15/19 14:30,508
1/15/19 14:30,507
1/15/19 14:30,510
1/15/19 14:30,508
1/15/19 14:30,507
1/15/19 14:30,507
1/15/19 14:30,507
1/15/19 14:30,508
1/15/19 14:30,508
1/15/19 14:30,507
1/15/19 14:30,507
1/15/19 14:30,508
1/15/19 14:30,507
1/15/19 14:30,509
1/15/19 14:30,509
1/15/19 14:30,508
1/15/19 14:30,508
1/15/19 14:30,507
1/15/19 14:30,509
1/15/19 14:30,508
1/15/19 14:30,507
1/15/19 14:30,506
1/15/19 14:30,509
1/15/19 14:30,508
1/15/19 14:30,507
1/15/19 14:30,508
1/15/19 14:30,510
1/15/19 14:30,519
1/15/19 14:30,504
1/15/19 14:30,503
1/15/19 14:30,504
1/15/19 14:30,504
1/15/19 14:30,507
1/15/19 14:30,506
1/15/19 14:30,506
1/15/19 14:30,506
1/15/19 14:30,505
1/15/19 14:30,507
1/15/19 14:30,507
1/15/19 14:30,508
1/15/19 14:30,508
1/15/19 14:30,509
1/15/19 14:30,509
1/15/19 14:30,508
1/15/19 14:30,508
1/15/19 14:30,508
1/15/19 14:30,509
1/15/19 14:30,510
1/15/19 14:30,509
1/15/19 14:30,507
1/15/19 14:30,510
1/15/19 14:30,509
1/15/19 14:30,509
1/15/19 14:30,508
1/15/19 14:30,509
1/15/19 14:30,507
1/15/19 14:30,508
1/15/19 14:30,506
1/15/19 14:30,508
1/15/19 14:30,506
1/15/19 14:30,508
1/15/19 14:30,506
1/15/19 14:30,507
1/15/19 14:30,509
1/15/19 14:30,507
1/15/19 14:30,509
1/15/19 14:30,508
1/15/19 14:30,508
1/15/19 14:30,508
1/15/19 14:30,506
1/15/19 14:30,507
1/15/19 14:30,507
1/15/19 14:30,506
1/15/19 14:30,508
1/15/19 14:30,507
1/15/19 14:30,507
1/15/19 14:30,517
1/15/19 14:30,513
1/15/19 14:30,502
1/15/19 14:30,504
1/15/19 14:30,506
1/15/19 14:30,505
1/15/19 14:30,506
1/15/19 14:30,506
1/15/19 14:30,504
1/15/19 14:30,505
1/15/19 14:30,505
1/15/19 14:30,507
1/15/19 14:30,507
1/15/19 14:30,507
1/15/19 14:30,508
1/15/19 14:30,508
1/15/19 14:30,510
1/15/19 14:30,508
1/15/19 14:30,509
1/15/19 14:30,507
1/15/19 14:30,510
1/15/19 14:30,510
1/15/19 14:30,509
1/15/19 14:30,509
1/15/19 14:30,508
1/15/19 14:30,507
1/15/19 14:30,509
1/15/19 14:30,507
1/15/19 14:30,509
1/15/19 14:30,509
1/15/19 14:30,508
1/15/19 14:30,509
1/15/19 14:30,506
1/15/19 14:30,506
1/15/19 14:30,507
1/15/19 14:30,505
1/15/19 14:30,506
1/15/19 14:30,506
1/15/19 14:30,506
1/15/19 14:30,509
1/15/19 14:30,506
1/15/19 14:30,507
1/15/19 14:30,506
1/15/19 14:30,507
1/15/19 14:30,509
1/15/19 14:30,509
1/15/19 14:30,510
1/15/19 14:30,507
1/15/19 14:30,507
1/15/19 14:30,508
1/15/19 14:30,521
1/15/19 14:30,504
1/15/19 14:30,503
1/15/19 14:30,506
1/15/19 14:30,508
1/15/19 14:30,509
1/15/19 14:30,506
1/15/19 14:30,506
1/15/19 14:30,507
1/15/19 14:30,505
1/15/19 14:30,506
1/15/19 14:30,507
1/15/19 14:30,507
1/15/19 14:30,506
1/15/19 14:30,506
1/15/19 14:30,508
1/15/19 14:30,507
1/15/19 14:30,510
1/15/19 14:30,509
1/15/19 14:30,509
1/15/19 14:30,508
1/15/19 14:30,510
1/15/19 14:30,509
1/15/19 14:30,509
1/15/19 14:30,508
1/15/19 14:30,509
1/15/19 14:30,508
1/15/19 14:30,507
1/15/19 14:30,508
1/15/19 14:30,508
1/15/19 14:30,508
1/15/19 14:30,509
1/15/19 14:30,509
1/15/19 14:30,507
1/15/19 14:30,508
1/15/19 14:30,507
1/15/19 14:30,506
1/15/19 14:30,506
1/15/19 14:30,507
1/15/19 14:30,506
1/15/19 14:30,507
1/15/19 14:30,507
1/15/19 14:30,508
1/15/19 14:30,508
1/15/19 14:30,507
1/15/19 14:30,505
1/15/19 14:30,506
1/15/19 14:30,507
1/15/19 14:30,509
1/15/19 14:30,513
1/15/19 14:30,520
1/15/19 14:30,503
1/15/19 14:30,506
1/15/19 14:30,505
1/15/19 14:30,507
1/15/19 14:30,506
1/15/19 14:30,507
1/15/19 14:30,506
1/15/19 14:30,506
1/15/19 14:30,506
1/15/19 14:30,504
1/15/19 14:30,505
1/15/19 14:30,506
1/15/19 14:30,508
1/15/19 14:30,509
1/15/19 14:30,508
1/15/19 14:30,506
1/15/19 14:30,509
1/15/19 14:30,509
1/15/19 14:30,510
1/15/19 14:30,509
1/15/19 14:30,508
1/15/19 14:30,507
1/15/19 14:30,509
1/15/19 14:30,508
1/15/19 14:30,509
1/15/19 14:30,507
1/15/19 14:30,508
1/15/19 14:30,508
1/15/19 14:30,508
1/15/19 14:30,509
1/15/19 14:30,507
1/15/19 14:30,508
1/15/19 14:30,509
1/15/19 14:30,508
1/15/19 14:30,508
1/15/19 14:30,507
1/15/19 14:30,508
1/15/19 14:30,507
1/15/19 14:30,508
1/15/19 14:30,507
1/15/19 14:30,507
1/15/19 14:30,508
1/15/19 14:30,506
1/15/19 14:30,506
1/15/19 14:30,507
1/15/19 14:30,505
1/15/19 14:30,506
1/15/19 14:30,507
1/15/19 14:30,517
1/15/19 14:30,516
1/15/19 14:30,504
1/15/19 14:30,503
1/15/19 14:30,505
1/15/19 14:30,507
1/15/19 14:30,507
1/15/19 14:30,507
1/15/19 14:30,506
1/15/19 14:30,506
1/15/19 14:30,506
1/15/19 14:39,508
1/15/19 14:39,508
1/15/19 14:39,508
1/15/19 14:39,508
1/15/19 14:39,510
1/15/19 14:39,509
1/15/19 14:39,509
1/15/19 14:39,508
1/15/19 14:39,507
1/15/19 14:39,509
1/15/19 14:39,509
1/15/19 14:39,505
1/15/19 14:39,507
1/15/19 14:39,507
1/15/19 14:39,507
1/15/19 14:39,507
1/15/19 14:39,505
1/15/19 14:39,508
1/15/19 14:39,506
1/15/19 14:39,515
1/15/19 14:39,508
1/15/19 14:39,503
1/15/19 14:39,507
1/15/19 14:39,506
1/15/19 14:39,507
1/15/19 14:39,506
1/15/19 14:39,506
1/15/19 14:39,507
1/15/19 14:39,507
1/15/19 14:39,508
1/15/19 14:39,508
1/15/19 14:39,508
1/15/19 14:39,508
1/15/19 14:39,507
1/15/19 14:39,509
1/15/19 14:39,510
1/15/19 14:39,507
1/15/19 14:39,509
1/15/19 14:39,509
1/15/19 14:39,507
1/15/19 14:39,509
1/15/19 14:39,509
1/15/19 14:39,509
1/15/19 14:39,508
1/15/19 14:39,507
1/15/19 14:39,508
1/15/19 14:39,508
1/15/19 14:39,509
1/15/19 14:39,507
1/15/19 14:39,507
1/15/19 14:39,509
1/15/19 14:39,506
1/15/19 14:39,507
1/15/19 14:39,506
1/15/19 14:39,507
1/15/19 14:39,509
1/15/19 14:39,506
1/15/19 14:39,508
1/15/19 14:39,506
1/15/19 14:39,508
1/15/19 14:39,508
1/15/19 14:39,506
1/15/19 14:39,509
1/15/19 14:39,508
1/15/19 14:39,510
1/15/19 14:39,507
1/15/19 14:39,508
1/15/19 14:39,507
1/15/19 14:39,508
1/15/19 14:39,508
1/15/19 14:39,510
1/15/19 14:39,506
1/15/19 14:39,507
1/15/19 14:39,506
1/15/19 14:39,517
1/15/19 14:39,510
1/15/19 14:39,500
1/15/19 14:39,506
1/15/19 14:39,507
1/15/19 14:39,507
1/15/19 14:39,506
1/15/19 14:39,505
1/15/19 14:39,507
1/15/19 14:39,506
1/15/19 14:39,507
1/15/19 14:39,507
1/15/19 14:39,506
1/15/19 14:39,509
1/15/19 14:39,507
1/15/19 14:39,509
1/15/19 14:39,508
1/15/19 14:39,509
1/15/19 14:39,510
1/15/19 14:39,509
1/15/19 14:39,511
1/15/19 14:39,507
1/15/19 14:39,507
1/15/19 14:39,510
1/15/19 14:39,508
1/15/19 14:39,510
1/15/19 14:39,509
1/15/19 14:39,508
1/15/19 14:39,507
1/15/19 14:39,505
1/15/19 14:39,508
1/15/19 14:39,508
1/15/19 14:39,508
1/15/19 14:39,507
1/15/19 14:39,505
1/15/19 14:39,507
1/15/19 14:39,506
1/15/19 14:39,507
1/15/19 14:39,508
1/15/19 14:39,505
1/15/19 14:39,507
1/15/19 14:39,508
1/15/19 14:39,507
1/15/19 14:39,510
1/15/19 14:39,507
1/15/19 14:39,508
1/15/19 14:39,507
1/15/19 14:39,506
1/15/19 14:39,509
1/15/19 14:39,507
1/15/19 14:39,510
1/15/19 14:39,508
1/15/19 14:39,506
1/15/19 14:39,518
1/15/19 14:39,505
1/15/19 14:39,504
1/15/19 14:39,505
1/15/19 14:39,507
1/15/19 14:39,507
1/15/19 14:39,505
1/15/19 14:39,507
1/15/19 14:39,505
1/15/19 14:39,507
1/15/19 14:39,508
1/15/19 14:39,506
1/15/19 14:39,505
1/15/19 14:39,506
1/15/19 14:39,506
1/15/19 14:39,509
1/15/19 14:39,507
1/15/19 14:39,509
1/15/19 14:39,507
1/15/19 14:39,508
1/15/19 14:39,510
1/15/19 14:39,511
1/15/19 14:39,511
1/15/19 14:39,507
1/15/19 14:39,509
1/15/19 14:39,510
1/15/19 14:39,508
1/15/19 14:39,509
1/15/19 14:39,506
1/15/19 14:39,508
1/15/19 14:39,508
1/15/19 14:39,507
1/15/19 14:39,509
1/15/19 14:39,507
1/15/19 14:39,507
1/15/19 14:39,509
1/15/19 14:39,507
1/15/19 14:39,509
1/15/19 14:39,505
1/15/19 14:39,506
1/15/19 14:39,508
1/15/19 14:39,506
1/15/19 14:39,508
1/15/19 14:39,507
1/15/19 14:39,508
1/15/19 14:39,508
1/15/19 14:39,506
1/15/19 14:39,508
1/15/19 14:39,508
1/15/19 14:39,508
1/15/19 14:39,507
1/15/19 14:39,506
1/15/19 14:39,509
1/15/19 14:39,517
1/15/19 14:39,502
1/15/19 14:39,506
1/15/19 14:39,506
1/15/19 14:39,510
1/15/19 14:39,505
1/15/19 14:39,505
1/15/19 14:39,506
1/15/19 14:39,505
1/15/19 14:39,507
1/15/19 14:39,505
1/15/19 14:39,509
1/15/19 14:39,507
1/15/19 14:39,508
1/15/19 14:39,509
1/15/19 14:39,507
1/15/19 14:39,508
1/15/19 14:39,510
1/15/19 14:39,508
1/15/19 14:39,508
1/15/19 14:39,508
1/15/19 14:39,506
1/15/19 14:39,506
1/15/19 14:39,509
1/15/19 14:39,512
1/15/19 14:39,510
1/15/19 14:39,512
1/15/19 14:39,508
1/15/19 14:39,510
1/15/19 14:39,507
1/15/19 14:39,506
1/15/19 14:39,507
1/15/19 14:39,506
1/15/19 14:39,508
1/15/19 14:39,507
1/15/19 14:39,507
1/15/19 14:39,510
1/15/19 14:39,506
1/15/19 14:39,507
1/15/19 14:39,510
1/15/19 14:39,505
1/15/19 14:39,508
1/15/19 14:39,505
1/15/19 14:39,505
1/15/19 14:39,506
1/15/19 14:39,505
1/15/19 14:39,508
1/15/19 14:39,507
1/15/19 14:39,509
1/15/19 14:39,509
1/15/19 14:39,506
1/15/19 14:39,508
1/15/19 14:39,518
1/15/19 14:39,503
1/15/19 14:39,503
1/15/19 14:39,506
1/15/19 14:39,508
1/15/19 14:39,509
1/15/19 14:39,506
1/15/19 14:39,506
1/15/19 14:39,507
1/15/19 14:39,509
1/15/19 14:39,507
1/15/19 14:39,506
1/15/19 14:39,508
1/15/19 14:39,507
1/15/19 14:39,510
1/15/19 14:39,507
1/15/19 14:39,508
1/15/19 14:39,509
1/15/19 14:39,508
1/15/19 14:39,510
1/15/19 14:39,508
1/15/19 14:39,509
1/15/19 14:39,509
1/15/19 14:39,506
1/15/19 14:39,509
1/15/19 14:39,505
1/15/19 14:39,509
1/15/19 14:39,509
1/15/19 14:39,508
1/15/19 14:39,509
1/15/19 14:39,508
1/15/19 14:39,507
1/15/19 14:39,509
1/15/19 14:39,508
1/15/19 14:39,508
1/15/19 14:39,507
1/15/19 14:39,508
1/15/19 14:39,509
1/15/19 14:39,506
1/15/19 14:39,503
1/15/19 14:39,507
1/15/19 14:39,510
1/15/19 14:39,508
1/15/19 14:39,509
1/15/19 14:39,510
1/15/19 14:39,508
1/15/19 14:39,507
1/15/19 14:39,507
1/15/19 14:39,506
1/15/19 14:39,509
1/15/19 14:39,505
1/15/19 14:39,508
1/15/19 14:39,508
1/15/19 14:39,508
1/15/19 14:39,517
1/15/19 14:39,505
1/15/19 14:39,501
1/15/19 14:39,507
1/15/19 14:39,508
1/15/19 14:39,503
1/15/19 14:39,507
1/15/19 14:39,510
1/15/19 14:39,509
1/15/19 14:39,509
1/15/19 14:39,511
1/15/19 14:39,506
1/15/19 14:39,508
1/15/19 14:39,506
1/15/19 14:39,507
1/15/19 14:39,502
1/15/19 14:39,505
1/15/19 14:39,511
1/15/19 14:39,510
1/15/19 14:39,513
1/15/19 14:39,504
1/15/19 14:39,508
1/15/19 14:39,513
1/15/19 14:39,511
1/15/19 14:39,512
1/15/19 14:39,505
1/15/19 14:39,505
1/15/19 14:39,509
1/15/19 14:39,510
1/15/19 14:39,498
1/15/19 14:39,502
1/15/19 14:39,508
1/15/19 14:39,514
1/15/19 14:39,503
1/15/19 14:39,511
1/15/19 14:39,504
1/15/19 14:39,511
1/15/19 14:39,506
1/15/19 14:39,510
1/15/19 14:39,503
1/15/19 14:39,515
1/15/19 14:39,504
1/15/19 14:39,497
1/15/19 14:39,510
1/15/19 14:39,520
1/15/19 14:39,501
1/15/19 14:39,495
1/15/19 14:39,509
1/15/19 14:39,505
1/15/19 14:39,510
1/15/19 14:39,489
1/15/19 14:39,509
1/15/19 14:39,513
1/15/19 14:39,525
1/15/19 14:39,502
1/15/19 14:39,516
1/15/19 14:39,516
1/15/19 14:39,515
1/15/19 14:39,488
1/15/19 14:39,511
1/15/19 14:39,527
1/15/19 14:39,518
1/15/19 14:39,508
1/15/19 14:39,505
1/15/19 14:39,496
1/15/19 14:39,493
1/15/19 14:39,493
1/15/19 14:39,510
1/15/19 14:39,500
1/15/19 14:39,505
1/15/19 14:39,537
1/15/19 14:39,534
1/15/19 14:39,521
1/15/19 14:39,507
1/15/19 14:39,496
1/15/19 14:39,523
1/15/19 14:39,528
1/15/19 14:39,526
1/15/19 14:39,500
1/15/19 14:39,498
1/15/19 14:39,505
1/15/19 14:39,488
1/15/19 14:39,495
1/15/19 14:39,496
1/15/19 14:39,492
1/15/19 14:39,510
1/15/19 14:39,492
1/15/19 14:39,499
1/15/19 14:39,514
1/15/19 14:39,511
1/15/19 14:39,522
1/15/19 14:39,510
1/15/19 14:39,493
1/15/19 14:39,492
1/15/19 14:39,511
1/15/19 14:39,500
1/15/19 14:39,513
1/15/19 14:39,510
1/15/19 14:39,510
1/15/19 14:39,515
1/15/19 14:39,505
1/15/19 14:39,513
1/15/19 14:39,506
1/15/19 14:39,523
1/15/19 14:39,523
1/15/19 14:39,513
1/15/19 14:39,506
1/15/19 14:39,511
1/15/19 14:39,502
1/15/19 14:39,496
1/15/19 14:39,507
1/15/19 14:39,503
1/15/19 14:39,508
1/15/19 14:39,507
1/15/19 14:39,505
1/15/19 14:39,509
1/15/19 14:39,502
1/15/19 14:39,522
1/15/19 14:39,513
1/15/19 14:39,509
1/15/19 14:39,505
1/15/19 14:39,501
1/15/19 14:39,506
1/15/19 14:39,510
1/15/19 14:39,499
1/15/19 14:39,506
1/15/19 14:39,515
1/15/19 14:39,515
1/15/19 14:39,516
1/15/19 14:39,504
1/15/19 14:39,501
1/15/19 14:39,501
1/15/19 14:39,504
1/15/19 14:39,513
1/15/19 14:39,511
1/15/19 14:39,508
1/15/19 14:39,507
1/15/19 14:39,511
1/15/19 14:39,504
1/15/19 14:39,505
1/15/19 14:39,500
1/15/19 14:39,520
1/15/19 14:39,515
1/15/19 14:39,506
1/15/19 14:39,511
1/15/19 14:39,509
1/15/19 14:39,504
1/15/19 14:39,508
1/15/19 14:39,500
1/15/19 14:39,505
1/15/19 14:39,514
1/15/19 14:39,513
1/15/19 14:39,507
1/15/19 14:39,507
1/15/19 14:39,509
1/15/19 14:39,507
1/15/19 14:39,506
1/15/19 14:39,507
1/15/19 14:39,505
1/15/19 14:39,504
1/15/19 14:39,503
1/15/19 14:39,501
1/15/19 14:39,510
1/15/19 14:39,515
1/15/19 14:39,513
1/15/19 14:39,506
1/15/19 14:39,508
1/15/19 14:39,522
1/15/19 14:39,501
1/15/19 14:39,503
1/15/19 14:39,499
1/15/19 14:39,511
1/15/19 14:39,505
1/15/19 14:39,504
1/15/19 14:39,506
1/15/19 14:39,504
1/15/19 14:39,504
1/15/19 14:39,502
1/15/19 14:39,527
1/15/19 14:39,515
1/15/19 14:39,501
1/15/19 14:39,501
1/15/19 14:39,505
1/15/19 14:39,505
1/15/19 14:39,507
1/15/19 14:39,513
1/15/19 14:39,515
1/15/19 14:39,513
1/15/19 14:39,509
1/15/19 14:39,514
1/15/19 14:39,505
1/15/19 14:39,502
1/15/19 14:39,505
1/15/19 14:39,505
1/15/19 14:39,507
1/15/19 14:39,500
1/15/19 14:39,500
1/15/19 14:39,495
1/15/19 14:39,509
1/15/19 14:39,512
1/15/19 14:39,509
1/15/19 14:39,506
1/15/19 14:39,515
1/15/19 14:39,511
1/15/19 14:39,511
1/15/19 14:39,507
1/15/19 14:39,501
1/15/19 14:39,503
1/15/19 14:39,503
1/15/19 14:39,509
1/15/19 14:39,502
1/15/19 14:39,508
1/15/19 14:39,511
1/15/19 14:39,510
1/15/19 14:39,508
1/15/19 14:39,506
1/15/19 14:39,506
1/15/19 14:39,499
1/15/19 14:39,511
1/15/19 14:39,514
1/15/19 14:39,515
1/15/19 14:39,509
1/15/19 14:39,506
1/15/19 14:39,507
1/15/19 14:39,505
1/15/19 14:39,508
1/15/19 14:39,506
1/15/19 14:39,509
1/15/19 14:39,524
1/15/19 14:39,511
1/15/19 14:39,509
1/15/19 14:39,514
1/15/19 14:39,507
1/15/19 14:39,500
1/15/19 14:39,501
1/15/19 14:39,497
1/15/19 14:39,508
1/15/19 14:39,507
1/15/19 14:39,506
1/15/19 14:39,503
1/15/19 14:39,501
1/15/19 14:39,508
1/15/19 14:39,502
1/15/19 14:39,507
1/15/19 14:39,507
1/15/19 14:39,509
1/15/19 14:39,509
1/15/19 14:39,510
1/15/19 14:39,517
1/15/19 14:39,503
1/15/19 14:39,505
1/15/19 14:39,508
1/15/19 14:39,512
1/15/19 14:39,512
1/15/19 14:39,507
1/15/19 14:39,509
1/15/19 14:39,518
1/15/19 14:39,507
1/15/19 14:39,504
1/15/19 14:39,505
1/15/19 14:39,506
1/15/19 14:39,510
1/15/19 14:39,506
1/15/19 14:39,506
1/15/19 14:39,509
1/15/19 14:39,505
1/15/19 14:39,509
1/15/19 14:39,506
1/15/19 14:39,511
1/15/19 14:39,514
1/15/19 14:39,509
1/15/19 14:39,520
1/15/19 14:39,507
1/15/19 14:39,508
1/15/19 14:39,507
1/15/19 14:39,507
1/15/19 14:39,505
1/15/19 14:39,501
1/15/19 14:39,513
1/15/19 14:39,509
1/15/19 14:39,514
1/15/19 14:39,516
1/15/19 14:39,502
1/15/19 14:39,504
1/15/19 14:39,505
1/15/19 14:39,522
1/15/19 14:39,508
1/15/19 14:39,504
1/15/19 14:39,501
1/15/19 14:39,514
1/15/19 14:39,509
1/15/19 14:39,505
1/15/19 14:39,498
1/15/19 14:39,511
1/15/19 14:39,502
1/15/19 14:39,514
1/15/19 14:39,506
1/15/19 14:39,502
1/15/19 14:39,510
1/15/19 14:39,501
1/15/19 14:39,516
1/15/19 14:39,504
1/15/19 14:39,510
1/15/19 14:39,507
1/15/19 14:39,499
1/15/19 14:39,507
1/15/19 14:39,506
1/15/19 14:39,507
1/15/19 14:39,509
1/15/19 14:39,505
1/15/19 14:39,503
1/15/19 14:39,515
1/15/19 14:39,509
1/15/19 14:39,502
1/15/19 14:48,508
1/15/19 14:48,508
1/15/19 14:48,508
1/15/19 14:48,509
1/15/19 14:48,508
1/15/19 14:48,506
1/15/19 14:48,504
1/15/19 14:48,509
1/15/19 14:48,520
1/15/19 14:48,514
1/15/19 14:48,507
1/15/19 14:48,505
1/15/19 14:48,506
1/15/19 14:48,506
1/15/19 14:48,507
1/15/19 14:48,504
1/15/19 14:48,504
1/15/19 14:48,506
1/15/19 14:48,507
1/15/19 14:48,506
1/15/19 14:48,506
1/15/19 14:48,506
1/15/19 14:48,511
1/15/19 14:48,508
1/15/19 14:48,510
1/15/19 14:48,511
1/15/19 14:48,510
1/15/19 14:48,510
1/15/19 14:48,509
1/15/19 14:48,509
1/15/19 14:48,508
1/15/19 14:48,506
1/15/19 14:48,510
1/15/19 14:48,510
1/15/19 14:48,509
1/15/19 14:48,509
1/15/19 14:48,508
1/15/19 14:48,508
1/15/19 14:48,507
1/15/19 14:48,507
1/15/19 14:48,507
1/15/19 14:48,507
1/15/19 14:48,507
1/15/19 14:48,506
1/15/19 14:48,507
1/15/19 14:48,508
1/15/19 14:48,508
1/15/19 14:48,506
1/15/19 14:48,505
1/15/19 14:48,509
1/15/19 14:48,508
1/15/19 14:48,508
1/15/19 14:48,510
1/15/19 14:48,506
1/15/19 14:48,509
1/15/19 14:48,509
1/15/19 14:48,507
1/15/19 14:48,519
1/15/19 14:48,508
1/15/19 14:48,504
1/15/19 14:48,505
1/15/19 14:48,505
1/15/19 14:48,507
1/15/19 14:48,505
1/15/19 14:48,505
1/15/19 14:48,505
