X,Bin ECG
6/11/19 15:59,506
6/11/19 15:59,506
6/11/19 15:59,504
6/11/19 15:59,504
6/11/19 15:59,502
6/11/19 15:59,511
6/11/19 15:59,508
6/11/19 15:59,507
6/11/19 15:59,503
6/11/19 15:59,503
6/11/19 15:59,504
6/11/19 15:59,503
6/11/19 15:59,507
6/11/19 15:59,509
6/11/19 15:59,504
6/11/19 15:59,503
6/11/19 15:59,504
6/11/19 15:59,504
6/11/19 15:59,504
6/11/19 15:59,502
6/11/19 15:59,506
6/11/19 15:59,504
6/11/19 15:59,500
6/11/19 15:59,516
6/11/19 15:59,501
6/11/19 15:59,500
6/11/19 15:59,502
6/11/19 15:59,506
6/11/19 15:59,503
6/11/19 15:59,502
6/11/19 15:59,503
6/11/19 15:59,503
6/11/19 15:59,508
6/11/19 15:59,506
6/11/19 15:59,500
6/11/19 15:59,497
6/11/19 15:59,501
6/11/19 15:59,498
6/11/19 15:59,503
6/11/19 15:59,505
6/11/19 15:59,505
6/11/19 15:59,502
6/11/19 15:59,507
6/11/19 15:59,505
6/11/19 15:59,510
6/11/19 15:59,536
6/11/19 15:59,487
6/11/19 15:59,485
6/11/19 15:59,486
6/11/19 15:59,493
6/11/19 15:59,494
6/11/19 15:59,503
6/11/19 15:59,508
6/11/19 15:59,499
6/11/19 15:59,498
6/11/19 15:59,501
6/11/19 15:59,500
6/11/19 15:59,504
6/11/19 15:59,504
6/11/19 15:59,505
6/11/19 15:59,505
6/11/19 15:59,506
6/11/19 15:59,504
6/11/19 15:59,509
6/11/19 15:59,496
6/11/19 15:59,507
6/11/19 15:59,503
6/11/19 15:59,505
6/11/19 15:59,504
6/11/19 15:59,506
6/11/19 15:59,505
6/11/19 15:59,504
6/11/19 15:59,508
6/11/19 15:59,510
6/11/19 15:59,508
6/11/19 15:59,509
6/11/19 15:59,501
6/11/19 15:59,503
6/11/19 15:59,504
6/11/19 15:59,503
6/11/19 15:59,508
6/11/19 15:59,504
6/11/19 15:59,506
6/11/19 15:59,503
6/11/19 15:59,500
6/11/19 15:59,502
6/11/19 15:59,502
6/11/19 15:59,501
6/11/19 15:59,502
6/11/19 15:59,503
6/11/19 15:59,502
6/11/19 15:59,502
6/11/19 15:59,503
6/11/19 15:59,504
6/11/19 15:59,504
6/11/19 15:59,504
6/11/19 15:59,501
6/11/19 15:59,503
6/11/19 15:59,502
6/11/19 15:59,502
6/11/19 15:59,503
6/11/19 15:59,501
6/11/19 15:59,535
6/11/19 15:59,494
6/11/19 15:59,487
6/11/19 15:59,489
6/11/19 15:59,496
6/11/19 15:59,497
6/11/19 15:59,497
6/11/19 15:59,503
6/11/19 15:59,504
6/11/19 15:59,502
6/11/19 15:59,505
6/11/19 15:59,500
6/11/19 15:59,503
6/11/19 15:59,503
6/11/19 15:59,503
6/11/19 15:59,505
6/11/19 15:59,504
6/11/19 15:59,506
6/11/19 15:59,508
6/11/19 15:59,504
6/11/19 15:59,506
6/11/19 15:59,508
6/11/19 15:59,509
6/11/19 15:59,509
6/11/19 15:59,504
6/11/19 15:59,504
6/11/19 15:59,505
6/11/19 15:59,505
6/11/19 15:59,504
6/11/19 15:59,504
6/11/19 15:59,504
6/11/19 15:59,503
6/11/19 15:59,502
6/11/19 15:59,504
6/11/19 15:59,503
6/11/19 15:59,504
6/11/19 15:59,503
6/11/19 15:59,504
6/11/19 15:59,505
6/11/19 15:59,505
6/11/19 15:59,504
6/11/19 15:59,499
6/11/19 15:59,502
6/11/19 15:59,502
6/11/19 15:59,505
6/11/19 15:59,504
6/11/19 15:59,504
6/11/19 15:59,504
6/11/19 15:59,503
6/11/19 15:59,504
6/11/19 15:59,505
6/11/19 15:59,502
6/11/19 15:59,503
6/11/19 15:59,502
6/11/19 15:59,503
6/11/19 15:59,503
6/11/19 15:59,501
6/11/19 15:59,502
6/11/19 15:59,503
6/11/19 15:59,503
6/11/19 15:59,506
6/11/19 15:59,531
6/11/19 15:59,490
6/11/19 15:59,487
6/11/19 15:59,491
6/11/19 15:59,493
6/11/19 15:59,497
6/11/19 15:59,500
6/11/19 15:59,503
6/11/19 15:59,505
6/11/19 15:59,505
6/11/19 15:59,502
6/11/19 15:59,504
6/11/19 15:59,503
6/11/19 15:59,504
6/11/19 15:59,505
6/11/19 15:59,504
6/11/19 15:59,505
6/11/19 15:59,504
6/11/19 15:59,506
6/11/19 15:59,504
6/11/19 15:59,505
6/11/19 15:59,505
6/11/19 15:59,505
6/11/19 15:59,505
6/11/19 15:59,506
6/11/19 15:59,504
6/11/19 15:59,507
6/11/19 15:59,505
6/11/19 15:59,503
6/11/19 15:59,504
6/11/19 15:59,503
6/11/19 15:59,505
6/11/19 15:59,504
6/11/19 15:59,503
6/11/19 15:59,506
6/11/19 15:59,503
6/11/19 15:59,517
6/11/19 15:59,501
6/11/19 15:59,499
6/11/19 15:59,502
6/11/19 15:59,502
6/11/19 15:59,505
6/11/19 15:59,506
6/11/19 15:59,503
6/11/19 15:59,504
6/11/19 15:59,504
6/11/19 15:59,502
6/11/19 15:59,493
6/11/19 15:59,501
6/11/19 15:59,503
6/11/19 15:59,501
6/11/19 15:59,507
6/11/19 15:59,506
6/11/19 15:59,511
6/11/19 15:59,502
6/11/19 15:59,497
6/11/19 15:59,501
6/11/19 15:59,502
6/11/19 15:59,501
6/11/19 15:59,533
6/11/19 15:59,493
6/11/19 15:59,486
6/11/19 15:59,492
6/11/19 15:59,498
6/11/19 15:59,501
6/11/19 15:59,498
6/11/19 15:59,503
6/11/19 15:59,502
6/11/19 15:59,503
6/11/19 15:59,506
6/11/19 15:59,501
6/11/19 15:59,505
6/11/19 15:59,505
6/11/19 15:59,503
6/11/19 15:59,505
6/11/19 15:59,503
6/11/19 15:59,506
6/11/19 15:59,504
6/11/19 15:59,506
6/11/19 15:59,505
6/11/19 15:59,504
6/11/19 15:59,505
6/11/19 15:59,505
6/11/19 15:59,507
6/11/19 15:59,505
6/11/19 15:59,505
6/11/19 15:59,505
6/11/19 15:59,503
6/11/19 15:59,506
6/11/19 15:59,506
6/11/19 15:59,504
6/11/19 15:59,506
6/11/19 15:59,503
6/11/19 15:59,503
6/11/19 15:59,503
6/11/19 15:59,505
6/11/19 15:59,508
6/11/19 15:59,506
6/11/19 15:59,504
6/11/19 15:59,502
6/11/19 15:59,502
6/11/19 15:59,505
6/11/19 15:59,502
6/11/19 15:59,504
6/11/19 15:59,501
6/11/19 15:59,503
6/11/19 15:59,503
6/11/19 15:59,501
6/11/19 15:59,500
6/11/19 15:59,499
6/11/19 15:59,501
6/11/19 15:59,511
6/11/19 15:59,498
6/11/19 15:59,499
6/11/19 15:59,500
6/11/19 15:59,502
6/11/19 15:59,502
6/11/19 15:59,506
6/11/19 15:59,535
6/11/19 15:59,491
6/11/19 15:59,487
6/11/19 15:59,492
6/11/19 15:59,495
6/11/19 15:59,502
6/11/19 15:59,503
6/11/19 15:59,501
6/11/19 15:59,504
6/11/19 15:59,503
6/11/19 15:59,505
6/11/19 15:59,505
6/11/19 15:59,505
6/11/19 15:59,504
6/11/19 15:59,505
6/11/19 15:59,503
6/11/19 15:59,505
6/11/19 15:59,505
6/11/19 15:59,507
6/11/19 15:59,506
6/11/19 15:59,506
6/11/19 15:59,505
6/11/19 15:59,503
6/11/19 15:59,503
6/11/19 15:59,503
6/11/19 15:59,507
6/11/19 15:59,506
6/11/19 15:59,505
6/11/19 15:59,506
6/11/19 15:59,504
6/11/19 15:59,503
6/11/19 15:59,504
6/11/19 15:59,505
6/11/19 15:59,504
6/11/19 15:59,503
6/11/19 15:59,505
6/11/19 15:59,506
6/11/19 15:59,505
6/11/19 15:59,507
6/11/19 15:59,502
6/11/19 15:59,504
6/11/19 15:59,503
6/11/19 15:59,503
6/11/19 15:59,503
6/11/19 15:59,503
6/11/19 15:59,502
6/11/19 15:59,501
6/11/19 15:59,501
6/11/19 15:59,502
6/11/19 15:59,501
6/11/19 15:59,502
6/11/19 15:59,502
6/11/19 15:59,501
6/11/19 15:59,503
6/11/19 15:59,502
6/11/19 15:59,502
6/11/19 15:59,502
6/11/19 15:59,535
6/11/19 15:59,500
6/11/19 15:59,484
6/11/19 15:59,488
6/11/19 15:59,496
6/11/19 15:59,500
6/11/19 15:59,501
6/11/19 15:59,501
6/11/19 15:59,506
6/11/19 15:59,505
6/11/19 15:59,504
6/11/19 15:59,504
6/11/19 15:59,504
6/11/19 15:59,503
6/11/19 15:59,501
6/11/19 15:59,504
6/11/19 15:59,503
6/11/19 15:59,503
6/11/19 15:59,506
6/11/19 15:59,505
6/11/19 15:59,506
6/11/19 15:59,505
6/11/19 15:59,505
6/11/19 15:59,507
6/11/19 15:59,504
6/11/19 15:59,506
6/11/19 15:59,506
6/11/19 15:59,505
6/11/19 15:59,503
6/11/19 15:59,506
6/11/19 15:59,505
6/11/19 15:59,504
6/11/19 15:59,504
6/11/19 15:59,505
6/11/19 15:59,502
6/11/19 15:59,503
6/11/19 15:59,506
6/11/19 15:59,503
6/11/19 15:59,507
6/11/19 15:59,505
6/11/19 15:59,505
6/11/19 15:59,503
6/11/19 15:59,503
6/11/19 15:59,504
6/11/19 15:59,501
6/11/19 15:59,503
6/11/19 15:59,501
6/11/19 15:59,501
6/11/19 15:59,502
6/11/19 15:59,500
6/11/19 15:59,502
6/11/19 15:59,501
6/11/19 15:59,501
6/11/19 15:59,503
6/11/19 15:59,501
6/11/19 15:59,504
6/11/19 15:59,503
6/11/19 15:59,518
6/11/19 15:59,525
6/11/19 15:59,487
6/11/19 15:59,488
6/11/19 15:59,493
6/11/19 15:59,496
6/11/19 15:59,503
6/11/19 15:59,498
6/11/19 15:59,502
6/11/19 15:59,503
6/11/19 15:59,501
6/11/19 15:59,502
6/11/19 15:59,505
6/11/19 15:59,506
6/11/19 15:59,506
6/11/19 15:59,504
6/11/19 15:59,505
6/11/19 15:59,502
6/11/19 15:59,506
6/11/19 15:59,506
6/11/19 15:59,504
6/11/19 15:59,507
6/11/19 15:59,505
6/11/19 15:59,506
6/11/19 15:59,504
6/11/19 15:59,505
6/11/19 15:59,506
6/11/19 15:59,504
6/11/19 15:59,505
6/11/19 15:59,504
6/11/19 15:59,505
6/11/19 15:59,504
6/11/19 15:59,504
6/11/19 15:59,505
6/11/19 15:59,504
6/11/19 15:59,505
6/11/19 15:59,505
6/11/19 15:59,504
6/11/19 15:59,506
6/11/19 15:59,505
6/11/19 15:59,503
6/11/19 15:59,504
6/11/19 15:59,502
6/11/19 15:59,505
6/11/19 15:59,501
6/11/19 15:59,503
6/11/19 15:59,502
6/11/19 15:59,501
6/11/19 15:59,502
6/11/19 15:59,500
6/11/19 15:59,501
6/11/19 15:59,501
6/11/19 15:59,502
6/11/19 15:59,503
6/11/19 15:59,503
6/11/19 15:59,501
6/11/19 15:59,504
6/11/19 15:59,502
6/11/19 15:59,505
6/11/19 15:59,506
6/11/19 15:59,530
6/11/19 15:59,489
6/11/19 15:59,482
6/11/19 15:59,496
6/11/19 15:59,494
6/11/19 15:59,498
6/11/19 15:59,505
6/11/19 15:59,504
6/11/19 15:59,505
6/11/19 15:59,503
6/11/19 15:59,506
6/11/19 15:59,505
6/11/19 15:59,505
6/11/19 15:59,505
6/11/19 15:59,503
6/11/19 15:59,504
6/11/19 15:59,505
6/11/19 15:59,505
6/11/19 15:59,506
6/11/19 15:59,503
6/11/19 15:59,504
6/11/19 15:59,505
6/11/19 15:59,506
6/11/19 15:59,506
6/11/19 15:59,504
6/11/19 15:59,506
6/11/19 15:59,506
6/11/19 15:59,505
6/11/19 15:59,505
6/11/19 15:59,504
6/11/19 15:59,504
6/11/19 15:59,504
6/11/19 15:59,501
6/11/19 15:59,505
6/11/19 15:59,502
6/11/19 15:59,504
6/11/19 15:59,505
6/11/19 15:59,504
6/11/19 15:59,505
6/11/19 15:59,504
6/11/19 15:59,505
6/11/19 15:59,503
6/11/19 15:59,505
6/11/19 15:59,503
6/11/19 15:59,502
6/11/19 15:59,501
6/11/19 15:59,502
6/11/19 15:59,503
6/11/19 15:59,503
6/11/19 15:59,502
6/11/19 15:59,503
6/11/19 15:59,502
6/11/19 15:59,502
6/11/19 15:59,501
6/11/19 15:59,501
6/11/19 15:59,504
6/11/19 15:59,505
6/11/19 15:59,531
6/11/19 15:59,495
6/11/19 15:59,487
6/11/19 15:59,491
6/11/19 15:59,497
6/11/19 15:59,495
6/11/19 15:59,500
6/11/19 15:59,499
6/11/19 15:59,504
6/11/19 15:59,504
6/11/19 15:59,504
6/11/19 15:59,506
6/11/19 15:59,505
6/11/19 15:59,505
6/11/19 15:59,504
6/11/19 15:59,505
6/11/19 15:59,505
6/11/19 15:59,504
6/11/19 15:59,504
6/11/19 15:59,505
6/11/19 15:59,505
6/11/19 15:59,505
6/11/19 15:59,507
6/11/19 15:59,507
6/11/19 15:59,506
6/11/19 15:59,505
6/11/19 15:59,507
6/11/19 15:59,505
6/11/19 15:59,505
6/11/19 15:59,505
6/11/19 15:59,504
6/11/19 15:59,504
6/11/19 15:59,502
6/11/19 15:59,505
6/11/19 15:59,503
6/11/19 15:59,502
6/11/19 15:59,504
6/11/19 15:59,504
6/11/19 15:59,505
6/11/19 15:59,505
6/11/19 15:59,504
6/11/19 15:59,504
6/11/19 15:59,503
6/11/19 15:59,504
6/11/19 15:59,503
6/11/19 15:59,504
6/11/19 15:59,502
6/11/19 15:59,502
6/11/19 15:59,503
6/11/19 15:59,501
6/11/19 15:59,501
6/11/19 15:59,502
6/11/19 15:59,502
6/11/19 15:59,505
6/11/19 15:59,502
6/11/19 15:59,502
6/11/19 15:59,503
6/11/19 15:59,507
6/11/19 15:59,530
6/11/19 15:59,489
6/11/19 15:59,487
6/11/19 15:59,493
6/11/19 15:59,495
6/11/19 15:59,499
6/11/19 15:59,500
6/11/19 15:59,503
6/11/19 15:59,504
6/11/19 15:59,502
6/11/19 15:59,505
6/11/19 15:59,503
6/11/19 15:59,505
6/11/19 15:59,504
6/11/19 15:59,504
6/11/19 15:59,505
6/11/19 15:59,505
6/11/19 15:59,504
6/11/19 15:59,504
6/11/19 15:59,504
6/11/19 15:59,506
6/11/19 15:59,505
6/11/19 15:59,507
6/11/19 15:59,505
6/11/19 15:59,505
6/11/19 15:59,505
6/11/19 15:59,505
6/11/19 15:59,505
6/11/19 15:59,504
6/11/19 15:59,505
6/11/19 16:08,502
6/11/19 16:08,502
6/11/19 16:08,503
6/11/19 16:08,504
6/11/19 16:08,505
6/11/19 16:08,505
6/11/19 16:08,505
6/11/19 16:08,503
6/11/19 16:08,502
6/11/19 16:08,505
6/11/19 16:08,504
6/11/19 16:08,505
6/11/19 16:08,503
6/11/19 16:08,502
6/11/19 16:08,505
6/11/19 16:08,502
6/11/19 16:08,501
6/11/19 16:08,502
6/11/19 16:08,501
6/11/19 16:08,502
6/11/19 16:08,502
6/11/19 16:08,503
6/11/19 16:08,502
6/11/19 16:08,501
6/11/19 16:08,503
6/11/19 16:08,503
6/11/19 16:08,515
6/11/19 16:08,526
6/11/19 16:08,483
6/11/19 16:08,489
6/11/19 16:08,493
6/11/19 16:08,500
6/11/19 16:08,502
6/11/19 16:08,503
6/11/19 16:08,503
6/11/19 16:08,502
6/11/19 16:08,503
6/11/19 16:08,503
6/11/19 16:08,502
6/11/19 16:08,502
6/11/19 16:08,499
6/11/19 16:08,503
6/11/19 16:08,505
6/11/19 16:08,506
6/11/19 16:08,509
6/11/19 16:08,506
6/11/19 16:08,506
6/11/19 16:08,504
6/11/19 16:08,506
6/11/19 16:08,506
6/11/19 16:08,506
6/11/19 16:08,506
6/11/19 16:08,505
6/11/19 16:08,505
6/11/19 16:08,502
6/11/19 16:08,504
6/11/19 16:08,507
6/11/19 16:08,504
6/11/19 16:08,504
6/11/19 16:08,504
6/11/19 16:08,504
6/11/19 16:08,506
6/11/19 16:08,504
6/11/19 16:08,501
6/11/19 16:08,502
6/11/19 16:08,502
6/11/19 16:08,503
6/11/19 16:08,505
6/11/19 16:08,506
6/11/19 16:08,499
6/11/19 16:08,499
6/11/19 16:08,504
6/11/19 16:08,503
6/11/19 16:08,505
6/11/19 16:08,502
6/11/19 16:08,504
6/11/19 16:08,503
6/11/19 16:08,502
6/11/19 16:08,503
6/11/19 16:08,502
6/11/19 16:08,500
6/11/19 16:08,503
6/11/19 16:08,502
6/11/19 16:08,504
6/11/19 16:08,504
6/11/19 16:08,503
6/11/19 16:08,540
6/11/19 16:08,502
6/11/19 16:08,484
6/11/19 16:08,491
6/11/19 16:08,492
6/11/19 16:08,499
6/11/19 16:08,505
6/11/19 16:08,505
6/11/19 16:08,504
6/11/19 16:08,505
6/11/19 16:08,500
6/11/19 16:08,503
6/11/19 16:08,505
6/11/19 16:08,505
6/11/19 16:08,504
6/11/19 16:08,507
6/11/19 16:08,503
6/11/19 16:08,505
6/11/19 16:08,505
6/11/19 16:08,505
6/11/19 16:08,507
6/11/19 16:08,503
6/11/19 16:08,505
6/11/19 16:08,504
6/11/19 16:08,503
6/11/19 16:08,504
6/11/19 16:08,504
6/11/19 16:08,506
6/11/19 16:08,505
6/11/19 16:08,503
6/11/19 16:08,505
6/11/19 16:08,505
6/11/19 16:08,505
6/11/19 16:08,503
6/11/19 16:08,502
6/11/19 16:08,503
6/11/19 16:08,503
6/11/19 16:08,505
6/11/19 16:08,506
6/11/19 16:08,505
6/11/19 16:08,505
6/11/19 16:08,505
6/11/19 16:08,503
6/11/19 16:08,505
6/11/19 16:08,507
6/11/19 16:08,504
6/11/19 16:08,500
6/11/19 16:08,501
6/11/19 16:08,501
6/11/19 16:08,501
6/11/19 16:08,503
6/11/19 16:08,501
6/11/19 16:08,502
6/11/19 16:08,502
6/11/19 16:08,503
6/11/19 16:08,504
6/11/19 16:08,502
6/11/19 16:08,502
6/11/19 16:08,503
6/11/19 16:08,507
6/11/19 16:08,532
6/11/19 16:08,483
6/11/19 16:08,487
6/11/19 16:08,494
6/11/19 16:08,499
6/11/19 16:08,503
6/11/19 16:08,504
6/11/19 16:08,505
6/11/19 16:08,503
6/11/19 16:08,506
6/11/19 16:08,504
6/11/19 16:08,503
6/11/19 16:08,510
6/11/19 16:08,502
6/11/19 16:08,501
6/11/19 16:08,502
6/11/19 16:08,500
6/11/19 16:08,502
6/11/19 16:08,495
6/11/19 16:08,503
6/11/19 16:08,506
6/11/19 16:08,507
6/11/19 16:08,509
6/11/19 16:08,506
6/11/19 16:08,508
6/11/19 16:08,506
6/11/19 16:08,509
6/11/19 16:08,509
6/11/19 16:08,503
6/11/19 16:08,503
6/11/19 16:08,503
6/11/19 16:08,503
6/11/19 16:08,503
6/11/19 16:08,500
6/11/19 16:08,503
6/11/19 16:08,502
6/11/19 16:08,502
6/11/19 16:08,503
6/11/19 16:08,507
6/11/19 16:08,506
6/11/19 16:08,504
6/11/19 16:08,503
6/11/19 16:08,505
6/11/19 16:08,503
6/11/19 16:08,504
6/11/19 16:08,504
6/11/19 16:08,502
6/11/19 16:08,505
6/11/19 16:08,502
6/11/19 16:08,500
6/11/19 16:08,502
6/11/19 16:08,501
6/11/19 16:08,502
6/11/19 16:08,501
6/11/19 16:08,503
6/11/19 16:08,502
6/11/19 16:08,502
6/11/19 16:08,502
6/11/19 16:08,502
6/11/19 16:08,502
6/11/19 16:08,501
6/11/19 16:08,532
6/11/19 16:08,515
6/11/19 16:08,477
6/11/19 16:08,497
6/11/19 16:08,498
6/11/19 16:08,501
6/11/19 16:08,504
6/11/19 16:08,506
6/11/19 16:08,506
6/11/19 16:08,505
6/11/19 16:08,504
6/11/19 16:08,504
6/11/19 16:08,503
6/11/19 16:08,504
6/11/19 16:08,503
6/11/19 16:08,501
6/11/19 16:08,501
6/11/19 16:08,504
6/11/19 16:08,507
6/11/19 16:08,506
6/11/19 16:08,505
6/11/19 16:08,506
6/11/19 16:08,504
6/11/19 16:08,505
6/11/19 16:08,504
6/11/19 16:08,505
6/11/19 16:08,507
6/11/19 16:08,505
6/11/19 16:08,504
6/11/19 16:08,502
6/11/19 16:08,505
6/11/19 16:08,504
6/11/19 16:08,503
6/11/19 16:08,504
6/11/19 16:08,505
6/11/19 16:08,505
6/11/19 16:08,504
6/11/19 16:08,505
6/11/19 16:08,505
6/11/19 16:08,505
6/11/19 16:08,505
6/11/19 16:08,504
6/11/19 16:08,503
6/11/19 16:08,504
6/11/19 16:08,503
6/11/19 16:08,502
6/11/19 16:08,502
6/11/19 16:08,501
6/11/19 16:08,500
6/11/19 16:08,500
6/11/19 16:08,503
6/11/19 16:08,505
6/11/19 16:08,501
6/11/19 16:08,503
6/11/19 16:08,502
6/11/19 16:08,503
6/11/19 16:08,502
6/11/19 16:08,503
6/11/19 16:08,503
6/11/19 16:08,503
6/11/19 16:08,537
6/11/19 16:08,494
6/11/19 16:08,484
6/11/19 16:08,493
6/11/19 16:08,494
6/11/19 16:08,500
6/11/19 16:08,504
6/11/19 16:08,504
6/11/19 16:08,503
6/11/19 16:08,501
6/11/19 16:08,505
6/11/19 16:08,504
6/11/19 16:08,505
6/11/19 16:08,505
6/11/19 16:08,503
6/11/19 16:08,504
6/11/19 16:08,503
6/11/19 16:08,505
6/11/19 16:08,505
6/11/19 16:08,504
6/11/19 16:08,504
6/11/19 16:08,507
6/11/19 16:08,505
6/11/19 16:08,508
6/11/19 16:08,505
6/11/19 16:08,504
6/11/19 16:08,506
6/11/19 16:08,505
6/11/19 16:08,505
6/11/19 16:08,503
6/11/19 16:08,506
6/11/19 16:08,504
6/11/19 16:08,504
6/11/19 16:08,505
6/11/19 16:08,501
6/11/19 16:08,503
6/11/19 16:08,503
6/11/19 16:08,502
6/11/19 16:08,504
6/11/19 16:08,503
6/11/19 16:08,506
6/11/19 16:08,503
6/11/19 16:08,500
6/11/19 16:08,506
6/11/19 16:08,498
6/11/19 16:08,504
6/11/19 16:08,504
6/11/19 16:08,503
6/11/19 16:08,504
6/11/19 16:08,501
6/11/19 16:08,501
6/11/19 16:08,501
6/11/19 16:08,500
6/11/19 16:08,503
6/11/19 16:08,502
6/11/19 16:08,504
6/11/19 16:08,504
6/11/19 16:08,526
6/11/19 16:08,519
6/11/19 16:08,483
6/11/19 16:08,490
6/11/19 16:08,492
6/11/19 16:08,498
6/11/19 16:08,501
6/11/19 16:08,501
6/11/19 16:08,505
6/11/19 16:08,503
6/11/19 16:08,503
6/11/19 16:08,504
6/11/19 16:08,502
6/11/19 16:08,504
6/11/19 16:08,503
6/11/19 16:08,503
6/11/19 16:08,506
6/11/19 16:08,501
6/11/19 16:08,504
6/11/19 16:08,507
6/11/19 16:08,506
6/11/19 16:08,506
6/11/19 16:08,506
6/11/19 16:08,506
6/11/19 16:08,504
6/11/19 16:08,504
6/11/19 16:08,505
6/11/19 16:08,505
6/11/19 16:08,504
6/11/19 16:08,503
6/11/19 16:08,505
6/11/19 16:08,504
6/11/19 16:08,505
6/11/19 16:08,506
6/11/19 16:08,505
6/11/19 16:08,502
6/11/19 16:08,504
6/11/19 16:08,500
6/11/19 16:08,505
6/11/19 16:08,506
6/11/19 16:08,505
6/11/19 16:08,504
6/11/19 16:08,503
6/11/19 16:08,504
6/11/19 16:08,503
6/11/19 16:08,505
6/11/19 16:08,501
6/11/19 16:08,503
6/11/19 16:08,501
6/11/19 16:08,501
6/11/19 16:08,502
6/11/19 16:08,503
6/11/19 16:08,501
6/11/19 16:08,501
6/11/19 16:08,501
6/11/19 16:08,501
6/11/19 16:08,505
6/11/19 16:08,500
6/11/19 16:08,503
6/11/19 16:08,530
6/11/19 16:08,518
6/11/19 16:08,484
6/11/19 16:08,487
6/11/19 16:08,492
6/11/19 16:08,499
6/11/19 16:08,502
6/11/19 16:08,503
6/11/19 16:08,502
6/11/19 16:08,506
6/11/19 16:08,503
6/11/19 16:08,504
6/11/19 16:08,505
6/11/19 16:08,503
6/11/19 16:08,507
6/11/19 16:08,504
6/11/19 16:08,507
6/11/19 16:08,506
6/11/19 16:08,504
6/11/19 16:08,507
6/11/19 16:08,504
6/11/19 16:08,506
6/11/19 16:08,505
6/11/19 16:08,504
6/11/19 16:08,505
6/11/19 16:08,505
6/11/19 16:08,504
6/11/19 16:08,505
6/11/19 16:08,505
6/11/19 16:08,504
6/11/19 16:08,504
6/11/19 16:08,503
6/11/19 16:08,502
6/11/19 16:08,502
6/11/19 16:08,502
6/11/19 16:08,501
6/11/19 16:08,505
6/11/19 16:08,507
6/11/19 16:08,505
6/11/19 16:08,506
6/11/19 16:08,505
6/11/19 16:08,504
6/11/19 16:08,505
6/11/19 16:08,505
6/11/19 16:08,504
6/11/19 16:08,502
6/11/19 16:08,502
6/11/19 16:08,501
6/11/19 16:08,501
6/11/19 16:08,502
6/11/19 16:08,501
6/11/19 16:08,500
6/11/19 16:08,502
6/11/19 16:08,503
6/11/19 16:08,502
6/11/19 16:08,502
6/11/19 16:08,503
6/11/19 16:08,503
6/11/19 16:08,503
6/11/19 16:08,502
6/11/19 16:08,502
6/11/19 16:08,539
6/11/19 16:08,501
6/11/19 16:08,483
6/11/19 16:08,492
6/11/19 16:08,496
6/11/19 16:08,500
6/11/19 16:08,501
6/11/19 16:08,504
6/11/19 16:08,503
6/11/19 16:08,500
6/11/19 16:08,505
6/11/19 16:08,505
6/11/19 16:08,506
6/11/19 16:08,506
6/11/19 16:08,503
6/11/19 16:08,504
6/11/19 16:08,503
6/11/19 16:08,504
6/11/19 16:08,506
6/11/19 16:08,504
6/11/19 16:08,503
6/11/19 16:08,505
6/11/19 16:08,507
6/11/19 16:08,506
6/11/19 16:08,505
6/11/19 16:08,504
6/11/19 16:08,506
6/11/19 16:08,505
6/11/19 16:08,506
6/11/19 16:08,505
6/11/19 16:08,505
6/11/19 16:08,503
6/11/19 16:08,503
6/11/19 16:08,504
6/11/19 16:08,504
6/11/19 16:08,500
6/11/19 16:08,503
6/11/19 16:08,506
6/11/19 16:08,505
6/11/19 16:08,504
6/11/19 16:08,505
6/11/19 16:08,503
6/11/19 16:08,503
6/11/19 16:08,505
6/11/19 16:08,502
6/11/19 16:08,502
6/11/19 16:08,502
6/11/19 16:08,503
6/11/19 16:08,503
6/11/19 16:08,499
6/11/19 16:08,504
6/11/19 16:08,500
6/11/19 16:08,502
6/11/19 16:08,501
6/11/19 16:08,501
6/11/19 16:08,503
6/11/19 16:08,502
6/11/19 16:08,503
6/11/19 16:08,502
6/11/19 16:08,503
6/11/19 16:08,523
6/11/19 16:08,524
6/11/19 16:08,483
6/11/19 16:08,489
6/11/19 16:08,493
6/11/19 16:08,498
6/11/19 16:08,502
6/11/19 16:08,504
6/11/19 16:08,506
6/11/19 16:08,502
6/11/19 16:08,507
6/11/19 16:08,503
6/11/19 16:08,505
6/11/19 16:08,506
6/11/19 16:08,505
6/11/19 16:08,504
6/11/19 16:08,502
6/11/19 16:08,504
6/11/19 16:08,505
6/11/19 16:08,505
6/11/19 16:08,506
6/11/19 16:08,505
6/11/19 16:08,506
6/11/19 16:08,505
6/11/19 16:08,504
6/11/19 16:08,505
6/11/19 16:08,504
6/11/19 16:08,505
6/11/19 16:08,506
6/11/19 16:08,501
6/11/19 16:08,505
6/11/19 16:08,505
6/11/19 16:08,505
6/11/19 16:08,499
6/11/19 16:08,503
6/11/19 16:08,504
6/11/19 16:08,501
6/11/19 16:08,503
6/11/19 16:08,507
6/11/19 16:08,507
6/11/19 16:08,504
6/11/19 16:08,503
6/11/19 16:08,504
6/11/19 16:08,503
6/11/19 16:08,500
6/11/19 16:08,503
6/11/19 16:08,502
6/11/19 16:08,503
6/11/19 16:08,502
6/11/19 16:08,503
6/11/19 16:08,503
6/11/19 16:08,502
6/11/19 16:08,503
6/11/19 16:08,501
6/11/19 16:08,503
6/11/19 16:08,503
6/11/19 16:08,501
6/11/19 16:08,501
6/11/19 16:08,502
6/11/19 16:08,506
6/11/19 16:08,533
6/11/19 16:08,487
6/11/19 16:08,488
6/11/19 16:08,492
6/11/19 16:08,494
6/11/19 16:08,500
6/11/19 16:08,502
6/11/19 16:08,504
6/11/19 16:08,504
6/11/19 16:08,505
6/11/19 16:08,504
6/11/19 16:08,504
6/11/19 16:08,504
6/11/19 16:08,505
6/11/19 16:08,505
6/11/19 16:08,506
6/11/19 16:08,504
6/11/19 16:08,504
6/11/19 16:08,504
6/11/19 16:08,504
6/11/19 16:08,506
6/11/19 16:08,503
6/11/19 16:08,507
6/11/19 16:08,504
6/11/19 16:08,505
6/11/19 16:08,505
6/11/19 16:08,505
6/11/19 16:08,506
6/11/19 16:08,505
6/11/19 16:08,503
6/11/19 16:08,505
6/11/19 16:08,504
6/11/19 16:08,505
6/11/19 16:08,504
6/11/19 16:08,505
6/11/19 16:08,504
6/11/19 16:17,506
6/11/19 16:17,505
6/11/19 16:17,507
6/11/19 16:17,501
6/11/19 16:17,505
6/11/19 16:17,501
6/11/19 16:17,504
6/11/19 16:17,506
6/11/19 16:17,500
6/11/19 16:17,502
6/11/19 16:17,505
6/11/19 16:17,502
6/11/19 16:17,504
6/11/19 16:17,501
6/11/19 16:17,504
6/11/19 16:17,501
6/11/19 16:17,501
6/11/19 16:17,505
6/11/19 16:17,500
6/11/19 16:17,501
6/11/19 16:17,505
6/11/19 16:17,501
6/11/19 16:17,503
6/11/19 16:17,501
6/11/19 16:17,505
6/11/19 16:17,505
6/11/19 16:17,503
6/11/19 16:17,504
6/11/19 16:17,514
6/11/19 16:17,533
6/11/19 16:17,481
6/11/19 16:17,485
6/11/19 16:17,492
6/11/19 16:17,490
6/11/19 16:17,507
6/11/19 16:17,504
6/11/19 16:17,505
6/11/19 16:17,506
6/11/19 16:17,503
6/11/19 16:17,506
6/11/19 16:17,503
6/11/19 16:17,500
6/11/19 16:17,501
6/11/19 16:17,503
6/11/19 16:17,507
6/11/19 16:17,503
6/11/19 16:17,506
6/11/19 16:17,506
6/11/19 16:17,503
6/11/19 16:17,507
6/11/19 16:17,505
6/11/19 16:17,506
6/11/19 16:17,500
6/11/19 16:17,505
6/11/19 16:17,509
6/11/19 16:17,506
6/11/19 16:17,504
6/11/19 16:17,506
6/11/19 16:17,502
6/11/19 16:17,506
6/11/19 16:17,503
6/11/19 16:17,504
6/11/19 16:17,505
6/11/19 16:17,500
6/11/19 16:17,506
6/11/19 16:17,503
6/11/19 16:17,505
6/11/19 16:17,500
6/11/19 16:17,505
6/11/19 16:17,507
6/11/19 16:17,502
6/11/19 16:17,506
6/11/19 16:17,504
6/11/19 16:17,501
6/11/19 16:17,506
6/11/19 16:17,501
6/11/19 16:17,503
6/11/19 16:17,502
6/11/19 16:17,497
6/11/19 16:17,504
6/11/19 16:17,502
6/11/19 16:17,505
6/11/19 16:17,504
6/11/19 16:17,498
6/11/19 16:17,503
6/11/19 16:17,500
6/11/19 16:17,505
6/11/19 16:17,503
6/11/19 16:17,542
6/11/19 16:17,503
6/11/19 16:17,481
6/11/19 16:17,485
6/11/19 16:17,495
6/11/19 16:17,496
6/11/19 16:17,506
6/11/19 16:17,503
6/11/19 16:17,508
6/11/19 16:17,505
6/11/19 16:17,501
6/11/19 16:17,504
6/11/19 16:17,500
6/11/19 16:17,503
6/11/19 16:17,502
6/11/19 16:17,503
6/11/19 16:17,506
6/11/19 16:17,501
6/11/19 16:17,507
6/11/19 16:17,505
6/11/19 16:17,504
6/11/19 16:17,508
6/11/19 16:17,498
6/11/19 16:17,507
6/11/19 16:17,506
6/11/19 16:17,504
6/11/19 16:17,513
6/11/19 16:17,504
6/11/19 16:17,505
6/11/19 16:17,505
6/11/19 16:17,514
6/11/19 16:17,503
6/11/19 16:17,499
6/11/19 16:17,503
6/11/19 16:17,503
6/11/19 16:17,501
6/11/19 16:17,505
6/11/19 16:17,502
6/11/19 16:17,506
6/11/19 16:17,505
6/11/19 16:17,502
6/11/19 16:17,505
6/11/19 16:17,500
6/11/19 16:17,506
6/11/19 16:17,505
6/11/19 16:17,497
6/11/19 16:17,508
6/11/19 16:17,502
6/11/19 16:17,501
6/11/19 16:17,503
6/11/19 16:17,506
6/11/19 16:17,507
6/11/19 16:17,502
6/11/19 16:17,503
6/11/19 16:17,502
6/11/19 16:17,501
6/11/19 16:17,502
6/11/19 16:17,500
6/11/19 16:17,505
6/11/19 16:17,508
6/11/19 16:17,529
6/11/19 16:17,484
6/11/19 16:17,484
6/11/19 16:17,494
6/11/19 16:17,498
6/11/19 16:17,501
6/11/19 16:17,506
6/11/19 16:17,501
6/11/19 16:17,505
6/11/19 16:17,502
6/11/19 16:17,503
6/11/19 16:17,504
6/11/19 16:17,501
6/11/19 16:17,505
6/11/19 16:17,501
6/11/19 16:17,504
6/11/19 16:17,505
6/11/19 16:17,506
6/11/19 16:17,505
6/11/19 16:17,504
6/11/19 16:17,506
6/11/19 16:17,508
6/11/19 16:17,498
6/11/19 16:17,509
6/11/19 16:17,506
6/11/19 16:17,507
6/11/19 16:17,506
6/11/19 16:17,503
6/11/19 16:17,507
6/11/19 16:17,502
6/11/19 16:17,503
6/11/19 16:17,506
6/11/19 16:17,501
6/11/19 16:17,507
6/11/19 16:17,503
6/11/19 16:17,504
6/11/19 16:17,506
6/11/19 16:17,501
6/11/19 16:17,502
6/11/19 16:17,503
6/11/19 16:17,505
6/11/19 16:17,507
6/11/19 16:17,502
6/11/19 16:17,505
6/11/19 16:17,500
6/11/19 16:17,502
6/11/19 16:17,503
6/11/19 16:17,499
6/11/19 16:17,505
6/11/19 16:17,497
6/11/19 16:17,508
6/11/19 16:17,505
6/11/19 16:17,496
6/11/19 16:17,505
6/11/19 16:17,505
6/11/19 16:17,504
6/11/19 16:17,504
6/11/19 16:17,502
6/11/19 16:17,506
6/11/19 16:17,502
6/11/19 16:17,541
6/11/19 16:17,506
6/11/19 16:17,479
6/11/19 16:17,486
6/11/19 16:17,494
6/11/19 16:17,502
6/11/19 16:17,504
6/11/19 16:17,503
6/11/19 16:17,506
6/11/19 16:17,501
6/11/19 16:17,503
6/11/19 16:17,503
6/11/19 16:17,500
6/11/19 16:17,505
6/11/19 16:17,501
6/11/19 16:17,504
6/11/19 16:17,504
6/11/19 16:17,503
6/11/19 16:17,507
6/11/19 16:17,502
6/11/19 16:17,504
6/11/19 16:17,505
6/11/19 16:17,504
6/11/19 16:17,507
6/11/19 16:17,505
6/11/19 16:17,507
6/11/19 16:17,504
6/11/19 16:17,503
6/11/19 16:17,506
6/11/19 16:17,504
6/11/19 16:17,506
6/11/19 16:17,506
6/11/19 16:17,504
6/11/19 16:17,506
6/11/19 16:17,502
6/11/19 16:17,504
6/11/19 16:17,502
6/11/19 16:17,503
6/11/19 16:17,505
6/11/19 16:17,502
6/11/19 16:17,505
6/11/19 16:17,503
6/11/19 16:17,497
6/11/19 16:17,507
6/11/19 16:17,500
6/11/19 16:17,506
6/11/19 16:17,505
6/11/19 16:17,504
6/11/19 16:17,505
6/11/19 16:17,501
6/11/19 16:17,505
6/11/19 16:17,501
6/11/19 16:17,502
6/11/19 16:17,504
6/11/19 16:17,499
6/11/19 16:17,504
6/11/19 16:17,501
6/11/19 16:17,499
6/11/19 16:17,503
6/11/19 16:17,499
6/11/19 16:17,538
6/11/19 16:17,503
6/11/19 16:17,483
6/11/19 16:17,493
6/11/19 16:17,491
6/11/19 16:17,503
6/11/19 16:17,502
6/11/19 16:17,504
6/11/19 16:17,508
6/11/19 16:17,502
6/11/19 16:17,506
6/11/19 16:17,502
6/11/19 16:17,502
6/11/19 16:17,506
6/11/19 16:17,498
6/11/19 16:17,507
6/11/19 16:17,504
6/11/19 16:17,505
6/11/19 16:17,507
6/11/19 16:17,501
6/11/19 16:17,507
6/11/19 16:17,503
6/11/19 16:17,504
6/11/19 16:17,507
6/11/19 16:17,501
6/11/19 16:17,508
6/11/19 16:17,504
6/11/19 16:17,505
6/11/19 16:17,504
6/11/19 16:17,503
6/11/19 16:17,503
6/11/19 16:17,502
6/11/19 16:17,505
6/11/19 16:17,507
6/11/19 16:17,502
6/11/19 16:17,508
6/11/19 16:17,501
6/11/19 16:17,505
6/11/19 16:17,506
6/11/19 16:17,504
6/11/19 16:17,506
6/11/19 16:17,501
6/11/19 16:17,503
6/11/19 16:17,503
6/11/19 16:17,499
6/11/19 16:17,505
6/11/19 16:17,495
6/11/19 16:17,508
6/11/19 16:17,506
6/11/19 16:17,502
6/11/19 16:17,506
6/11/19 16:17,501
6/11/19 16:17,504
6/11/19 16:17,504
6/11/19 16:17,501
6/11/19 16:17,503
6/11/19 16:17,501
6/11/19 16:17,502
6/11/19 16:17,540
6/11/19 16:17,510
6/11/19 16:17,481
6/11/19 16:17,481
6/11/19 16:17,503
6/11/19 16:17,495
6/11/19 16:17,499
6/11/19 16:17,505
6/11/19 16:17,502
6/11/19 16:17,505
6/11/19 16:17,506
6/11/19 16:17,500
6/11/19 16:17,506
6/11/19 16:17,501
6/11/19 16:17,504
6/11/19 16:17,504
6/11/19 16:17,502
6/11/19 16:17,498
6/11/19 16:17,506
6/11/19 16:17,509
6/11/19 16:17,511
6/11/19 16:17,504
6/11/19 16:17,508
6/11/19 16:17,502
6/11/19 16:17,506
6/11/19 16:17,504
6/11/19 16:17,503
6/11/19 16:17,506
6/11/19 16:17,502
6/11/19 16:17,505
6/11/19 16:17,503
6/11/19 16:17,503
6/11/19 16:17,505
6/11/19 16:17,499
6/11/19 16:17,502
6/11/19 16:17,505
6/11/19 16:17,501
6/11/19 16:17,511
6/11/19 16:17,505
6/11/19 16:17,508
6/11/19 16:17,505
6/11/19 16:17,501
6/11/19 16:17,506
6/11/19 16:17,502
6/11/19 16:17,505
6/11/19 16:17,504
6/11/19 16:17,501
6/11/19 16:17,506
6/11/19 16:17,499
6/11/19 16:17,504
6/11/19 16:17,502
6/11/19 16:17,499
6/11/19 16:17,505
6/11/19 16:17,500
6/11/19 16:17,505
6/11/19 16:17,503
6/11/19 16:17,504
6/11/19 16:17,507
6/11/19 16:17,501
6/11/19 16:17,538
6/11/19 16:17,486
6/11/19 16:17,484
6/11/19 16:17,492
6/11/19 16:17,498
6/11/19 16:17,502
6/11/19 16:17,502
6/11/19 16:17,501
6/11/19 16:17,503
6/11/19 16:17,501
6/11/19 16:17,504
6/11/19 16:17,501
6/11/19 16:17,502
6/11/19 16:17,504
6/11/19 16:17,502
6/11/19 16:17,505
6/11/19 16:17,501
6/11/19 16:17,507
6/11/19 16:17,506
6/11/19 16:17,498
6/11/19 16:17,508
6/11/19 16:17,505
6/11/19 16:17,506
6/11/19 16:17,508
6/11/19 16:17,502
6/11/19 16:17,508
6/11/19 16:17,503
6/11/19 16:17,504
6/11/19 16:17,506
6/11/19 16:17,502
6/11/19 16:17,505
6/11/19 16:17,506
6/11/19 16:17,499
6/11/19 16:17,507
6/11/19 16:17,504
6/11/19 16:17,506
6/11/19 16:17,502
6/11/19 16:17,503
6/11/19 16:17,504
6/11/19 16:17,501
6/11/19 16:17,507
6/11/19 16:17,501
6/11/19 16:17,503
6/11/19 16:17,505
6/11/19 16:17,502
6/11/19 16:17,506
6/11/19 16:17,501
6/11/19 16:17,503
6/11/19 16:17,500
6/11/19 16:17,498
6/11/19 16:17,509
6/11/19 16:17,505
6/11/19 16:17,503
6/11/19 16:17,505
6/11/19 16:17,500
6/11/19 16:17,507
6/11/19 16:17,500
6/11/19 16:17,502
6/11/19 16:17,504
6/11/19 16:17,500
6/11/19 16:17,529
6/11/19 16:17,524
6/11/19 16:17,481
6/11/19 16:17,487
6/11/19 16:17,491
6/11/19 16:17,500
6/11/19 16:17,499
6/11/19 16:17,506
6/11/19 16:17,505
6/11/19 16:17,501
6/11/19 16:17,508
6/11/19 16:17,503
6/11/19 16:17,506
6/11/19 16:17,504
6/11/19 16:17,501
6/11/19 16:17,506
6/11/19 16:17,499
6/11/19 16:17,504
6/11/19 16:17,500
6/11/19 16:17,502
6/11/19 16:17,511
6/11/19 16:17,505
6/11/19 16:17,508
6/11/19 16:17,506
6/11/19 16:17,505
6/11/19 16:17,508
6/11/19 16:17,503
6/11/19 16:17,506
6/11/19 16:17,504
6/11/19 16:17,502
6/11/19 16:17,506
6/11/19 16:17,502
6/11/19 16:17,505
6/11/19 16:17,503
6/11/19 16:17,498
6/11/19 16:17,503
6/11/19 16:17,506
6/11/19 16:17,507
6/11/19 16:17,505
6/11/19 16:17,513
6/11/19 16:17,503
6/11/19 16:17,498
6/11/19 16:17,500
6/11/19 16:17,501
6/11/19 16:17,500
6/11/19 16:17,505
6/11/19 16:17,500
6/11/19 16:17,506
6/11/19 16:17,503
6/11/19 16:17,497
6/11/19 16:17,507
6/11/19 16:17,501
6/11/19 16:17,506
6/11/19 16:17,502
6/11/19 16:17,504
6/11/19 16:17,506
6/11/19 16:17,501
6/11/19 16:17,506
6/11/19 16:17,502
6/11/19 16:17,504
6/11/19 16:17,506
6/11/19 16:17,541
6/11/19 16:17,504
6/11/19 16:17,479
6/11/19 16:17,491
6/11/19 16:17,496
6/11/19 16:17,496
6/11/19 16:17,505
6/11/19 16:17,501
6/11/19 16:17,503
6/11/19 16:17,505
6/11/19 16:17,498
6/11/19 16:17,503
6/11/19 16:17,502
6/11/19 16:17,503
6/11/19 16:17,507
6/11/19 16:17,499
6/11/19 16:17,509
6/11/19 16:17,504
6/11/19 16:17,500
6/11/19 16:17,509
6/11/19 16:17,506
6/11/19 16:17,510
6/11/19 16:17,506
6/11/19 16:17,504
6/11/19 16:17,506
6/11/19 16:17,503
6/11/19 16:17,505
6/11/19 16:17,502
6/11/19 16:17,504
6/11/19 16:17,505
6/11/19 16:17,503
6/11/19 16:17,506
6/11/19 16:17,501
6/11/19 16:17,504
6/11/19 16:17,505
6/11/19 16:17,496
6/11/19 16:17,517
6/11/19 16:17,500
6/11/19 16:17,502
6/11/19 16:17,503
6/11/19 16:17,499
6/11/19 16:17,506
6/11/19 16:17,501
6/11/19 16:17,504
6/11/19 16:17,504
6/11/19 16:17,500
6/11/19 16:17,503
6/11/19 16:17,506
6/11/19 16:17,499
6/11/19 16:17,504
6/11/19 16:17,504
6/11/19 16:17,506
6/11/19 16:17,503
6/11/19 16:17,505
6/11/19 16:17,503
6/11/19 16:17,504
6/11/19 16:17,509
6/11/19 16:17,500
6/11/19 16:17,503
6/11/19 16:17,506
6/11/19 16:17,532
6/11/19 16:17,483
6/11/19 16:17,485
6/11/19 16:17,494
6/11/19 16:17,494
6/11/19 16:17,498
6/11/19 16:17,506
6/11/19 16:17,498
6/11/19 16:17,505
6/11/19 16:17,504
6/11/19 16:17,501
6/11/19 16:17,504
6/11/19 16:17,500
6/11/19 16:17,503
6/11/19 16:17,503
6/11/19 16:17,501
6/11/19 16:17,507
6/11/19 16:17,503
6/11/19 16:17,507
6/11/19 16:17,506
6/11/19 16:17,505
6/11/19 16:17,508
6/11/19 16:17,502
6/11/19 16:17,508
6/11/19 16:17,504
6/11/19 16:17,504
6/11/19 16:17,508
6/11/19 16:17,503
6/11/19 16:17,507
6/11/19 16:17,503
6/11/19 16:17,504
6/11/19 16:17,507
6/11/19 16:17,499
6/11/19 16:17,505
6/11/19 16:26,501
6/11/19 16:26,502
6/11/19 16:26,504
6/11/19 16:26,503
6/11/19 16:26,503
6/11/19 16:26,505
6/11/19 16:26,504
6/11/19 16:26,504
6/11/19 16:26,504
6/11/19 16:26,505
6/11/19 16:26,506
6/11/19 16:26,516
6/11/19 16:26,505
6/11/19 16:26,502
6/11/19 16:26,501
6/11/19 16:26,500
6/11/19 16:26,504
6/11/19 16:26,502
6/11/19 16:26,504
6/11/19 16:26,503
6/11/19 16:26,502
6/11/19 16:26,499
6/11/19 16:26,506
6/11/19 16:26,506
6/11/19 16:26,505
6/11/19 16:26,506
6/11/19 16:26,505
6/11/19 16:26,504
6/11/19 16:26,504
6/11/19 16:26,504
6/11/19 16:26,505
6/11/19 16:26,503
6/11/19 16:26,503
6/11/19 16:26,504
6/11/19 16:26,503
6/11/19 16:26,503
6/11/19 16:26,503
6/11/19 16:26,501
6/11/19 16:26,502
6/11/19 16:26,500
6/11/19 16:26,504
6/11/19 16:26,501
6/11/19 16:26,502
6/11/19 16:26,507
6/11/19 16:26,505
6/11/19 16:26,503
6/11/19 16:26,505
6/11/19 16:26,534
6/11/19 16:26,521
6/11/19 16:26,481
6/11/19 16:26,489
6/11/19 16:26,493
6/11/19 16:26,495
6/11/19 16:26,499
6/11/19 16:26,504
6/11/19 16:26,505
6/11/19 16:26,503
6/11/19 16:26,503
6/11/19 16:26,498
6/11/19 16:26,502
6/11/19 16:26,505
6/11/19 16:26,503
6/11/19 16:26,505
6/11/19 16:26,505
6/11/19 16:26,505
6/11/19 16:26,505
6/11/19 16:26,505
6/11/19 16:26,504
6/11/19 16:26,504
6/11/19 16:26,505
6/11/19 16:26,503
6/11/19 16:26,506
6/11/19 16:26,507
6/11/19 16:26,506
6/11/19 16:26,505
6/11/19 16:26,506
6/11/19 16:26,506
6/11/19 16:26,506
6/11/19 16:26,503
6/11/19 16:26,504
6/11/19 16:26,505
6/11/19 16:26,504
6/11/19 16:26,502
6/11/19 16:26,502
6/11/19 16:26,503
6/11/19 16:26,504
6/11/19 16:26,500
6/11/19 16:26,508
6/11/19 16:26,505
6/11/19 16:26,503
6/11/19 16:26,504
6/11/19 16:26,506
6/11/19 16:26,505
6/11/19 16:26,504
6/11/19 16:26,501
6/11/19 16:26,502
6/11/19 16:26,499
6/11/19 16:26,503
6/11/19 16:26,504
6/11/19 16:26,502
6/11/19 16:26,504
6/11/19 16:26,504
6/11/19 16:26,501
6/11/19 16:26,504
6/11/19 16:26,504
6/11/19 16:26,503
6/11/19 16:26,503
6/11/19 16:26,502
6/11/19 16:26,501
6/11/19 16:26,530
6/11/19 16:26,522
6/11/19 16:26,478
6/11/19 16:26,489
6/11/19 16:26,491
6/11/19 16:26,499
6/11/19 16:26,503
6/11/19 16:26,504
6/11/19 16:26,504
6/11/19 16:26,505
6/11/19 16:26,504
6/11/19 16:26,502
6/11/19 16:26,504
6/11/19 16:26,504
6/11/19 16:26,503
6/11/19 16:26,503
6/11/19 16:26,503
6/11/19 16:26,502
6/11/19 16:26,506
6/11/19 16:26,503
6/11/19 16:26,506
6/11/19 16:26,505
6/11/19 16:26,505
6/11/19 16:26,505
6/11/19 16:26,506
6/11/19 16:26,502
6/11/19 16:26,505
6/11/19 16:26,505
6/11/19 16:26,506
6/11/19 16:26,507
6/11/19 16:26,506
6/11/19 16:26,507
6/11/19 16:26,505
6/11/19 16:26,505
6/11/19 16:26,503
6/11/19 16:26,502
6/11/19 16:26,502
6/11/19 16:26,503
6/11/19 16:26,504
6/11/19 16:26,504
6/11/19 16:26,504
6/11/19 16:26,502
6/11/19 16:26,501
6/11/19 16:26,501
6/11/19 16:26,504
6/11/19 16:26,504
6/11/19 16:26,507
6/11/19 16:26,504
6/11/19 16:26,503
6/11/19 16:26,502
6/11/19 16:26,503
6/11/19 16:26,503
6/11/19 16:26,503
6/11/19 16:26,501
6/11/19 16:26,502
6/11/19 16:26,503
6/11/19 16:26,503
6/11/19 16:26,503
6/11/19 16:26,502
6/11/19 16:26,502
6/11/19 16:26,539
6/11/19 16:26,491
6/11/19 16:26,483
6/11/19 16:26,492
6/11/19 16:26,496
6/11/19 16:26,497
6/11/19 16:26,499
6/11/19 16:26,503
6/11/19 16:26,501
6/11/19 16:26,504
6/11/19 16:26,504
6/11/19 16:26,502
6/11/19 16:26,503
6/11/19 16:26,503
6/11/19 16:26,504
6/11/19 16:26,505
6/11/19 16:26,503
6/11/19 16:26,503
6/11/19 16:26,506
6/11/19 16:26,501
6/11/19 16:26,507
6/11/19 16:26,507
6/11/19 16:26,505
6/11/19 16:26,506
6/11/19 16:26,506
6/11/19 16:26,504
6/11/19 16:26,505
6/11/19 16:26,503
6/11/19 16:26,507
6/11/19 16:26,506
6/11/19 16:26,505
6/11/19 16:26,504
6/11/19 16:26,504
6/11/19 16:26,505
6/11/19 16:26,504
6/11/19 16:26,499
6/11/19 16:26,517
6/11/19 16:26,505
6/11/19 16:26,500
6/11/19 16:26,501
6/11/19 16:26,501
6/11/19 16:26,502
6/11/19 16:26,502
6/11/19 16:26,504
6/11/19 16:26,503
6/11/19 16:26,502
6/11/19 16:26,502
6/11/19 16:26,505
6/11/19 16:26,504
6/11/19 16:26,502
6/11/19 16:26,500
6/11/19 16:26,506
6/11/19 16:26,503
6/11/19 16:26,501
6/11/19 16:26,503
6/11/19 16:26,505
6/11/19 16:26,504
6/11/19 16:26,503
6/11/19 16:26,503
6/11/19 16:26,503
6/11/19 16:26,507
6/11/19 16:26,534
6/11/19 16:26,483
6/11/19 16:26,487
6/11/19 16:26,491
6/11/19 16:26,496
6/11/19 16:26,503
6/11/19 16:26,502
6/11/19 16:26,504
6/11/19 16:26,500
6/11/19 16:26,504
6/11/19 16:26,505
6/11/19 16:26,504
6/11/19 16:26,505
6/11/19 16:26,502
6/11/19 16:26,503
6/11/19 16:26,503
6/11/19 16:26,505
6/11/19 16:26,505
6/11/19 16:26,504
6/11/19 16:26,505
6/11/19 16:26,506
6/11/19 16:26,503
6/11/19 16:26,503
6/11/19 16:26,504
6/11/19 16:26,505
6/11/19 16:26,503
6/11/19 16:26,506
6/11/19 16:26,506
6/11/19 16:26,504
6/11/19 16:26,504
6/11/19 16:26,507
6/11/19 16:26,504
6/11/19 16:26,504
6/11/19 16:26,504
6/11/19 16:26,503
6/11/19 16:26,503
6/11/19 16:26,503
6/11/19 16:26,498
6/11/19 16:26,504
6/11/19 16:26,505
6/11/19 16:26,505
6/11/19 16:26,504
6/11/19 16:26,504
6/11/19 16:26,503
6/11/19 16:26,504
6/11/19 16:26,505
6/11/19 16:26,502
6/11/19 16:26,501
6/11/19 16:26,503
6/11/19 16:26,502
6/11/19 16:26,501
6/11/19 16:26,500
6/11/19 16:26,505
6/11/19 16:26,503
6/11/19 16:26,504
6/11/19 16:26,504
6/11/19 16:26,503
6/11/19 16:26,502
6/11/19 16:26,500
6/11/19 16:26,502
6/11/19 16:26,504
6/11/19 16:26,506
6/11/19 16:26,537
6/11/19 16:26,482
6/11/19 16:26,487
6/11/19 16:26,491
6/11/19 16:26,492
6/11/19 16:26,502
6/11/19 16:26,501
6/11/19 16:26,504
6/11/19 16:26,504
6/11/19 16:26,505
6/11/19 16:26,505
6/11/19 16:26,500
6/11/19 16:26,504
6/11/19 16:26,503
6/11/19 16:26,500
6/11/19 16:26,505
6/11/19 16:26,506
6/11/19 16:26,506
6/11/19 16:26,506
6/11/19 16:26,504
6/11/19 16:26,506
6/11/19 16:26,503
6/11/19 16:26,506
6/11/19 16:26,505
6/11/19 16:26,504
6/11/19 16:26,506
6/11/19 16:26,505
6/11/19 16:26,505
6/11/19 16:26,502
6/11/19 16:26,502
6/11/19 16:26,504
6/11/19 16:26,504
6/11/19 16:26,505
6/11/19 16:26,505
6/11/19 16:26,505
6/11/19 16:26,505
6/11/19 16:26,503
6/11/19 16:26,503
6/11/19 16:26,503
6/11/19 16:26,504
6/11/19 16:26,502
6/11/19 16:26,507
6/11/19 16:26,500
6/11/19 16:26,504
6/11/19 16:26,504
6/11/19 16:26,505
6/11/19 16:26,502
6/11/19 16:26,503
6/11/19 16:26,502
6/11/19 16:26,503
6/11/19 16:26,502
6/11/19 16:26,502
6/11/19 16:26,500
6/11/19 16:26,502
6/11/19 16:26,503
6/11/19 16:26,501
6/11/19 16:26,501
6/11/19 16:26,497
6/11/19 16:26,507
6/11/19 16:26,505
6/11/19 16:26,505
6/11/19 16:26,544
6/11/19 16:26,502
6/11/19 16:26,483
6/11/19 16:26,490
6/11/19 16:26,493
6/11/19 16:26,506
6/11/19 16:26,502
6/11/19 16:26,499
6/11/19 16:26,499
6/11/19 16:26,501
6/11/19 16:26,503
6/11/19 16:26,503
6/11/19 16:26,504
6/11/19 16:26,502
6/11/19 16:26,506
6/11/19 16:26,504
6/11/19 16:26,508
6/11/19 16:26,505
6/11/19 16:26,505
6/11/19 16:26,505
6/11/19 16:26,506
6/11/19 16:26,505
6/11/19 16:26,507
6/11/19 16:26,505
6/11/19 16:26,504
6/11/19 16:26,505
6/11/19 16:26,502
6/11/19 16:26,506
6/11/19 16:26,507
6/11/19 16:26,505
6/11/19 16:26,506
6/11/19 16:26,506
6/11/19 16:26,505
6/11/19 16:26,501
6/11/19 16:26,506
6/11/19 16:26,502
6/11/19 16:26,503
6/11/19 16:26,505
6/11/19 16:26,504
6/11/19 16:26,502
6/11/19 16:26,502
6/11/19 16:26,505
6/11/19 16:26,503
6/11/19 16:26,503
6/11/19 16:26,503
6/11/19 16:26,501
6/11/19 16:26,503
6/11/19 16:26,503
6/11/19 16:26,497
6/11/19 16:26,505
6/11/19 16:26,504
6/11/19 16:26,503
6/11/19 16:26,504
6/11/19 16:26,505
6/11/19 16:26,503
6/11/19 16:26,501
6/11/19 16:26,502
6/11/19 16:26,503
6/11/19 16:26,504
6/11/19 16:26,504
6/11/19 16:26,504
6/11/19 16:26,516
6/11/19 16:26,536
6/11/19 16:26,479
6/11/19 16:26,487
6/11/19 16:26,489
6/11/19 16:26,497
6/11/19 16:26,498
6/11/19 16:26,505
6/11/19 16:26,505
6/11/19 16:26,504
6/11/19 16:26,505
6/11/19 16:26,505
6/11/19 16:26,499
6/11/19 16:26,502
6/11/19 16:26,502
6/11/19 16:26,501
6/11/19 16:26,503
6/11/19 16:26,502
6/11/19 16:26,505
6/11/19 16:26,504
6/11/19 16:26,504
6/11/19 16:26,505
6/11/19 16:26,503
6/11/19 16:26,509
6/11/19 16:26,505
6/11/19 16:26,505
6/11/19 16:26,507
6/11/19 16:26,508
6/11/19 16:26,505
6/11/19 16:26,505
6/11/19 16:26,504
6/11/19 16:26,504
6/11/19 16:26,503
6/11/19 16:26,502
6/11/19 16:26,505
6/11/19 16:26,503
6/11/19 16:26,501
6/11/19 16:26,504
6/11/19 16:26,504
6/11/19 16:26,507
6/11/19 16:26,505
6/11/19 16:26,506
6/11/19 16:26,505
6/11/19 16:26,504
6/11/19 16:26,502
6/11/19 16:26,503
6/11/19 16:26,503
6/11/19 16:26,503
6/11/19 16:26,502
6/11/19 16:26,503
6/11/19 16:26,503
6/11/19 16:26,502
6/11/19 16:26,502
6/11/19 16:26,500
6/11/19 16:26,501
6/11/19 16:26,503
6/11/19 16:26,499
6/11/19 16:26,503
6/11/19 16:26,503
6/11/19 16:26,504
6/11/19 16:26,503
6/11/19 16:26,502
6/11/19 16:26,542
6/11/19 16:26,511
6/11/19 16:26,481
6/11/19 16:26,488
6/11/19 16:26,494
6/11/19 16:26,495
6/11/19 16:26,502
6/11/19 16:26,503
6/11/19 16:26,504
6/11/19 16:26,504
6/11/19 16:26,505
6/11/19 16:26,504
6/11/19 16:26,504
6/11/19 16:26,502
6/11/19 16:26,501
6/11/19 16:26,505
6/11/19 16:26,502
6/11/19 16:26,505
6/11/19 16:26,505
6/11/19 16:26,506
6/11/19 16:26,507
6/11/19 16:26,505
6/11/19 16:26,505
6/11/19 16:26,506
6/11/19 16:26,505
6/11/19 16:26,505
6/11/19 16:26,504
6/11/19 16:26,505
6/11/19 16:26,503
6/11/19 16:26,504
6/11/19 16:26,505
6/11/19 16:26,503
6/11/19 16:26,503
6/11/19 16:26,500
6/11/19 16:26,503
6/11/19 16:26,504
6/11/19 16:26,504
6/11/19 16:26,504
6/11/19 16:26,505
6/11/19 16:26,504
6/11/19 16:26,504
6/11/19 16:26,503
6/11/19 16:26,503
6/11/19 16:26,503
6/11/19 16:26,504
6/11/19 16:26,503
6/11/19 16:26,503
6/11/19 16:26,503
6/11/19 16:26,504
6/11/19 16:26,503
6/11/19 16:26,502
6/11/19 16:26,502
6/11/19 16:26,502
6/11/19 16:26,499
6/11/19 16:26,502
6/11/19 16:26,504
6/11/19 16:26,504
6/11/19 16:26,503
6/11/19 16:26,504
6/11/19 16:26,503
6/11/19 16:26,503
6/11/19 16:26,515
6/11/19 16:26,534
6/11/19 16:26,481
6/11/19 16:26,486
6/11/19 16:26,491
6/11/19 16:26,494
6/11/19 16:26,501
6/11/19 16:26,501
6/11/19 16:26,504
6/11/19 16:26,504
6/11/19 16:26,503
6/11/19 16:26,504
6/11/19 16:26,500
6/11/19 16:26,501
6/11/19 16:26,506
6/11/19 16:26,503
6/11/19 16:26,504
6/11/19 16:26,505
6/11/19 16:26,505
6/11/19 16:26,505
6/11/19 16:26,506
6/11/19 16:26,505
6/11/19 16:26,505
6/11/19 16:26,505
6/11/19 16:26,506
6/11/19 16:26,505
6/11/19 16:26,505
6/11/19 16:26,505
6/11/19 16:26,501
6/11/19 16:26,507
6/11/19 16:26,505
6/11/19 16:26,506
6/11/19 16:26,506
6/11/19 16:26,505
6/11/19 16:26,504
6/11/19 16:26,502
6/11/19 16:26,504
6/11/19 16:26,503
6/11/19 16:26,503
6/11/19 16:26,504
6/11/19 16:26,503
6/11/19 16:26,502
6/11/19 16:26,504
6/11/19 16:26,504
6/11/19 16:26,502
6/11/19 16:26,501
6/11/19 16:26,504
6/11/19 16:26,503
6/11/19 16:26,503
6/11/19 16:26,503
6/11/19 16:26,502
6/11/19 16:26,502
6/11/19 16:26,502
6/11/19 16:26,503
6/11/19 16:26,502
6/11/19 16:26,503
6/11/19 16:26,505
6/11/19 16:26,504
6/11/19 16:26,504
6/11/19 16:26,502
6/11/19 16:26,504
6/11/19 16:26,506
6/11/19 16:26,540
6/11/19 16:35,505
6/11/19 16:35,506
6/11/19 16:35,504
6/11/19 16:35,502
6/11/19 16:35,505
6/11/19 16:35,502
6/11/19 16:35,501
6/11/19 16:35,499
6/11/19 16:35,500
6/11/19 16:35,503
6/11/19 16:35,500
6/11/19 16:35,502
6/11/19 16:35,502
6/11/19 16:35,495
6/11/19 16:35,508
6/11/19 16:35,538
6/11/19 16:35,485
6/11/19 16:35,478
6/11/19 16:35,495
6/11/19 16:35,501
6/11/19 16:35,505
6/11/19 16:35,496
6/11/19 16:35,497
6/11/19 16:35,500
6/11/19 16:35,505
6/11/19 16:35,503
6/11/19 16:35,503
6/11/19 16:35,497
6/11/19 16:35,501
6/11/19 16:35,505
6/11/19 16:35,503
6/11/19 16:35,509
6/11/19 16:35,504
6/11/19 16:35,505
6/11/19 16:35,507
6/11/19 16:35,504
6/11/19 16:35,505
6/11/19 16:35,503
6/11/19 16:35,507
6/11/19 16:35,506
6/11/19 16:35,505
6/11/19 16:35,498
6/11/19 16:35,505
6/11/19 16:35,504
6/11/19 16:35,509
6/11/19 16:35,506
6/11/19 16:35,504
6/11/19 16:35,504
6/11/19 16:35,515
6/11/19 16:35,499
6/11/19 16:35,498
6/11/19 16:35,500
6/11/19 16:35,495
6/11/19 16:35,501
6/11/19 16:35,513
6/11/19 16:35,505
6/11/19 16:35,506
6/11/19 16:35,505
6/11/19 16:35,514
6/11/19 16:35,497
6/11/19 16:35,490
6/11/19 16:35,503
6/11/19 16:35,517
6/11/19 16:35,502
6/11/19 16:35,499
6/11/19 16:35,501
6/11/19 16:35,502
6/11/19 16:35,510
6/11/19 16:35,500
6/11/19 16:35,503
6/11/19 16:35,503
6/11/19 16:35,504
6/11/19 16:35,545
6/11/19 16:35,504
6/11/19 16:35,493
6/11/19 16:35,486
6/11/19 16:35,495
6/11/19 16:35,496
6/11/19 16:35,498
6/11/19 16:35,502
6/11/19 16:35,504
6/11/19 16:35,506
6/11/19 16:35,504
6/11/19 16:35,504
6/11/19 16:35,497
6/11/19 16:35,504
6/11/19 16:35,507
6/11/19 16:35,507
6/11/19 16:35,506
6/11/19 16:35,523
6/11/19 16:35,497
6/11/19 16:35,498
6/11/19 16:35,494
6/11/19 16:35,503
6/11/19 16:35,504
6/11/19 16:35,511
6/11/19 16:35,509
6/11/19 16:35,506
6/11/19 16:35,505
6/11/19 16:35,508
6/11/19 16:35,505
6/11/19 16:35,504
6/11/19 16:35,504
6/11/19 16:35,503
6/11/19 16:35,496
6/11/19 16:35,506
6/11/19 16:35,508
6/11/19 16:35,508
6/11/19 16:35,506
6/11/19 16:35,515
6/11/19 16:35,502
6/11/19 16:35,498
6/11/19 16:35,498
6/11/19 16:35,499
6/11/19 16:35,501
6/11/19 16:35,504
6/11/19 16:35,509
6/11/19 16:35,522
6/11/19 16:35,500
6/11/19 16:35,496
6/11/19 16:35,499
6/11/19 16:35,502
6/11/19 16:35,502
6/11/19 16:35,503
6/11/19 16:35,502
6/11/19 16:35,504
6/11/19 16:35,505
6/11/19 16:35,502
6/11/19 16:35,502
6/11/19 16:35,502
6/11/19 16:35,536
6/11/19 16:35,493
6/11/19 16:35,488
6/11/19 16:35,489
6/11/19 16:35,499
6/11/19 16:35,501
6/11/19 16:35,502
6/11/19 16:35,504
6/11/19 16:35,504
6/11/19 16:35,503
6/11/19 16:35,497
6/11/19 16:35,503
6/11/19 16:35,504
6/11/19 16:35,506
6/11/19 16:35,504
6/11/19 16:35,506
6/11/19 16:35,505
6/11/19 16:35,505
6/11/19 16:35,504
6/11/19 16:35,506
6/11/19 16:35,506
6/11/19 16:35,505
6/11/19 16:35,498
6/11/19 16:35,504
6/11/19 16:35,505
6/11/19 16:35,506
6/11/19 16:35,505
6/11/19 16:35,502
6/11/19 16:35,506
6/11/19 16:35,503
6/11/19 16:35,507
6/11/19 16:35,505
6/11/19 16:35,503
6/11/19 16:35,504
6/11/19 16:35,503
6/11/19 16:35,506
6/11/19 16:35,513
6/11/19 16:35,502
6/11/19 16:35,503
6/11/19 16:35,502
6/11/19 16:35,501
6/11/19 16:35,504
6/11/19 16:35,500
6/11/19 16:35,506
6/11/19 16:35,504
6/11/19 16:35,504
6/11/19 16:35,503
6/11/19 16:35,503
6/11/19 16:35,501
6/11/19 16:35,502
6/11/19 16:35,501
6/11/19 16:35,502
6/11/19 16:35,503
6/11/19 16:35,502
6/11/19 16:35,501
6/11/19 16:35,502
6/11/19 16:35,504
6/11/19 16:35,504
6/11/19 16:35,536
6/11/19 16:35,487
6/11/19 16:35,489
6/11/19 16:35,493
6/11/19 16:35,494
6/11/19 16:35,498
6/11/19 16:35,497
6/11/19 16:35,508
6/11/19 16:35,504
6/11/19 16:35,503
6/11/19 16:35,501
6/11/19 16:35,502
6/11/19 16:35,506
6/11/19 16:35,506
6/11/19 16:35,508
6/11/19 16:35,500
6/11/19 16:35,499
6/11/19 16:35,500
6/11/19 16:35,501
6/11/19 16:35,502
6/11/19 16:35,504
6/11/19 16:35,504
6/11/19 16:35,504
6/11/19 16:35,505
6/11/19 16:35,505
6/11/19 16:35,500
6/11/19 16:35,506
6/11/19 16:35,510
6/11/19 16:35,507
6/11/19 16:35,509
6/11/19 16:35,506
6/11/19 16:35,506
6/11/19 16:35,505
6/11/19 16:35,504
6/11/19 16:35,504
6/11/19 16:35,504
6/11/19 16:35,501
6/11/19 16:35,505
6/11/19 16:35,505
6/11/19 16:35,504
6/11/19 16:35,505
6/11/19 16:35,503
6/11/19 16:35,504
6/11/19 16:35,502
6/11/19 16:35,502
6/11/19 16:35,502
6/11/19 16:35,503
6/11/19 16:35,503
6/11/19 16:35,503
6/11/19 16:35,502
6/11/19 16:35,502
6/11/19 16:35,499
6/11/19 16:35,502
6/11/19 16:35,503
6/11/19 16:35,505
6/11/19 16:35,506
6/11/19 16:35,503
6/11/19 16:35,504
6/11/19 16:35,505
6/11/19 16:35,542
6/11/19 16:35,505
6/11/19 16:35,480
6/11/19 16:35,489
6/11/19 16:35,486
6/11/19 16:35,500
6/11/19 16:35,497
6/11/19 16:35,500
6/11/19 16:35,505
6/11/19 16:35,506
6/11/19 16:35,503
6/11/19 16:35,504
6/11/19 16:35,504
6/11/19 16:35,504
6/11/19 16:35,504
6/11/19 16:35,503
6/11/19 16:35,505
6/11/19 16:35,498
6/11/19 16:35,504
6/11/19 16:35,507
6/11/19 16:35,508
6/11/19 16:35,508
6/11/19 16:35,501
6/11/19 16:35,504
6/11/19 16:35,502
6/11/19 16:35,503
6/11/19 16:35,503
6/11/19 16:35,503
6/11/19 16:35,504
6/11/19 16:35,505
6/11/19 16:35,503
6/11/19 16:35,505
6/11/19 16:35,503
6/11/19 16:35,504
6/11/19 16:35,504
6/11/19 16:35,505
6/11/19 16:35,503
6/11/19 16:35,500
6/11/19 16:35,510
6/11/19 16:35,507
6/11/19 16:35,505
6/11/19 16:35,505
6/11/19 16:35,503
6/11/19 16:35,505
6/11/19 16:35,502
6/11/19 16:35,503
6/11/19 16:35,505
6/11/19 16:35,498
6/11/19 16:35,507
6/11/19 16:35,501
6/11/19 16:35,507
6/11/19 16:35,506
6/11/19 16:35,503
6/11/19 16:35,502
6/11/19 16:35,503
6/11/19 16:35,503
6/11/19 16:35,502
6/11/19 16:35,500
6/11/19 16:35,504
6/11/19 16:35,540
6/11/19 16:35,492
6/11/19 16:35,483
6/11/19 16:35,489
6/11/19 16:35,493
6/11/19 16:35,495
6/11/19 16:35,501
6/11/19 16:35,503
6/11/19 16:35,505
6/11/19 16:35,511
6/11/19 16:35,505
6/11/19 16:35,499
6/11/19 16:35,502
6/11/19 16:35,499
6/11/19 16:35,503
6/11/19 16:35,502
6/11/19 16:35,503
6/11/19 16:35,503
6/11/19 16:35,504
6/11/19 16:35,506
6/11/19 16:35,504
6/11/19 16:35,506
6/11/19 16:35,504
6/11/19 16:35,505
6/11/19 16:35,507
6/11/19 16:35,508
6/11/19 16:35,500
6/11/19 16:35,507
6/11/19 16:35,508
6/11/19 16:35,507
6/11/19 16:35,506
6/11/19 16:35,503
6/11/19 16:35,504
6/11/19 16:35,504
6/11/19 16:35,503
6/11/19 16:35,503
6/11/19 16:35,503
6/11/19 16:35,504
6/11/19 16:35,503
6/11/19 16:35,500
6/11/19 16:35,506
6/11/19 16:35,505
6/11/19 16:35,504
6/11/19 16:35,505
6/11/19 16:35,506
6/11/19 16:35,504
6/11/19 16:35,502
6/11/19 16:35,503
6/11/19 16:35,502
6/11/19 16:35,503
6/11/19 16:35,502
6/11/19 16:35,502
6/11/19 16:35,503
6/11/19 16:35,498
6/11/19 16:35,503
6/11/19 16:35,507
6/11/19 16:35,506
6/11/19 16:35,502
6/11/19 16:35,521
6/11/19 16:35,531
6/11/19 16:35,480
6/11/19 16:35,487
6/11/19 16:35,493
6/11/19 16:35,494
6/11/19 16:35,500
6/11/19 16:35,501
6/11/19 16:35,503
6/11/19 16:35,503
6/11/19 16:35,501
6/11/19 16:35,503
6/11/19 16:35,504
6/11/19 16:35,501
6/11/19 16:35,505
6/11/19 16:35,507
6/11/19 16:35,507
6/11/19 16:35,503
6/11/19 16:35,506
6/11/19 16:35,507
6/11/19 16:35,504
6/11/19 16:35,506
6/11/19 16:35,504
6/11/19 16:35,505
6/11/19 16:35,505
6/11/19 16:35,503
6/11/19 16:35,504
6/11/19 16:35,502
6/11/19 16:35,508
6/11/19 16:35,507
6/11/19 16:35,502
6/11/19 16:35,508
6/11/19 16:35,503
6/11/19 16:35,503
6/11/19 16:35,505
6/11/19 16:35,512
6/11/19 16:35,501
6/11/19 16:35,502
6/11/19 16:35,505
6/11/19 16:35,503
6/11/19 16:35,505
6/11/19 16:35,505
6/11/19 16:35,502
6/11/19 16:35,502
6/11/19 16:35,505
6/11/19 16:35,504
6/11/19 16:35,503
6/11/19 16:35,503
6/11/19 16:35,504
6/11/19 16:35,502
6/11/19 16:35,503
6/11/19 16:35,503
6/11/19 16:35,501
6/11/19 16:35,499
6/11/19 16:35,503
6/11/19 16:35,501
6/11/19 16:35,502
6/11/19 16:35,502
6/11/19 16:35,504
6/11/19 16:35,500
6/11/19 16:35,544
6/11/19 16:35,498
6/11/19 16:35,484
6/11/19 16:35,490
6/11/19 16:35,493
6/11/19 16:35,498
6/11/19 16:35,503
6/11/19 16:35,504
6/11/19 16:35,505
6/11/19 16:35,504
6/11/19 16:35,504
6/11/19 16:35,504
6/11/19 16:35,502
6/11/19 16:35,503
6/11/19 16:35,503
6/11/19 16:35,496
6/11/19 16:35,507
6/11/19 16:35,506
6/11/19 16:35,506
6/11/19 16:35,506
6/11/19 16:35,505
6/11/19 16:35,503
6/11/19 16:35,504
6/11/19 16:35,507
6/11/19 16:35,504
6/11/19 16:35,504
6/11/19 16:35,504
6/11/19 16:35,496
6/11/19 16:35,512
6/11/19 16:35,505
6/11/19 16:35,504
6/11/19 16:35,508
6/11/19 16:35,498
6/11/19 16:35,501
6/11/19 16:35,501
6/11/19 16:35,503
6/11/19 16:35,503
6/11/19 16:35,504
6/11/19 16:35,505
6/11/19 16:35,502
6/11/19 16:35,504
6/11/19 16:35,505
6/11/19 16:35,501
6/11/19 16:35,505
6/11/19 16:35,503
6/11/19 16:35,504
6/11/19 16:35,503
6/11/19 16:35,493
6/11/19 16:35,506
6/11/19 16:35,505
6/11/19 16:35,505
6/11/19 16:35,505
6/11/19 16:35,502
6/11/19 16:35,504
6/11/19 16:35,501
6/11/19 16:35,496
6/11/19 16:35,507
6/11/19 16:35,505
6/11/19 16:35,505
6/11/19 16:35,538
6/11/19 16:35,494
6/11/19 16:35,484
6/11/19 16:35,490
6/11/19 16:35,494
6/11/19 16:35,498
6/11/19 16:35,501
6/11/19 16:35,502
6/11/19 16:35,504
6/11/19 16:35,503
6/11/19 16:35,504
6/11/19 16:35,499
6/11/19 16:35,505
6/11/19 16:35,502
6/11/19 16:35,505
6/11/19 16:35,504
6/11/19 16:35,506
6/11/19 16:35,504
6/11/19 16:35,503
6/11/19 16:35,507
6/11/19 16:35,503
6/11/19 16:35,504
6/11/19 16:35,503
6/11/19 16:35,503
6/11/19 16:35,504
6/11/19 16:35,505
6/11/19 16:35,506
6/11/19 16:35,503
6/11/19 16:35,503
6/11/19 16:35,506
6/11/19 16:35,505
6/11/19 16:35,507
6/11/19 16:35,507
6/11/19 16:35,504
6/11/19 16:35,505
6/11/19 16:35,504
6/11/19 16:35,504
6/11/19 16:35,505
6/11/19 16:35,499
6/11/19 16:35,504
6/11/19 16:35,517
6/11/19 16:35,500
6/11/19 16:35,500
6/11/19 16:35,503
6/11/19 16:35,502
6/11/19 16:35,503
6/11/19 16:35,504
6/11/19 16:35,503
6/11/19 16:35,498
6/11/19 16:35,501
6/11/19 16:35,504
6/11/19 16:35,506
6/11/19 16:35,506
6/11/19 16:35,500
6/11/19 16:35,503
6/11/19 16:35,503
6/11/19 16:35,502
6/11/19 16:35,502
6/11/19 16:35,501
6/11/19 16:35,504
6/11/19 16:35,538
6/11/19 16:35,491
6/11/19 16:35,484
6/11/19 16:35,492
6/11/19 16:35,493
6/11/19 16:35,498
6/11/19 16:35,502
6/11/19 16:35,504
6/11/19 16:35,504
6/11/19 16:35,500
6/11/19 16:35,502
6/11/19 16:35,508
6/11/19 16:35,506
6/11/19 16:35,505
6/11/19 16:35,505
6/11/19 16:35,504
6/11/19 16:35,504
6/11/19 16:35,503
6/11/19 16:35,503
6/11/19 16:35,500
6/11/19 16:35,506
6/11/19 16:35,507
6/11/19 16:35,506
6/11/19 16:35,505
6/11/19 16:35,505
6/11/19 16:35,507
6/11/19 16:35,506
6/11/19 16:35,506
6/11/19 16:35,504
6/11/19 16:35,499
6/11/19 16:35,504
6/11/19 16:35,506
6/11/19 16:35,504
6/11/19 16:35,507
6/11/19 16:35,503
6/11/19 16:35,500
6/11/19 16:35,505
6/11/19 16:35,504
6/11/19 16:35,503
6/11/19 16:35,503
6/11/19 16:35,503
6/11/19 16:35,502
6/11/19 16:35,502
6/11/19 16:35,503
6/11/19 16:35,504
6/11/19 16:35,501
6/11/19 16:35,505
6/11/19 16:35,505
6/11/19 16:35,505
6/11/19 16:35,505
6/11/19 16:35,504
6/11/19 16:35,503
6/11/19 16:35,503
6/11/19 16:35,503
6/11/19 16:35,501
6/11/19 16:35,503
6/11/19 16:35,502
6/11/19 16:44,505
6/11/19 16:44,505
6/11/19 16:44,503
6/11/19 16:44,503
6/11/19 16:44,500
6/11/19 16:44,501
6/11/19 16:44,510
6/11/19 16:44,504
6/11/19 16:44,505
6/11/19 16:44,503
6/11/19 16:44,502
6/11/19 16:44,505
6/11/19 16:44,502
6/11/19 16:44,505
6/11/19 16:44,502
6/11/19 16:44,501
6/11/19 16:44,505
6/11/19 16:44,498
6/11/19 16:44,503
6/11/19 16:44,505
6/11/19 16:44,504
6/11/19 16:44,504
6/11/19 16:44,503
6/11/19 16:44,504
6/11/19 16:44,503
6/11/19 16:44,504
6/11/19 16:44,503
6/11/19 16:44,502
6/11/19 16:44,501
6/11/19 16:44,505
6/11/19 16:44,503
6/11/19 16:44,509
6/11/19 16:44,529
6/11/19 16:44,484
6/11/19 16:44,489
6/11/19 16:44,491
6/11/19 16:44,497
6/11/19 16:44,501
6/11/19 16:44,504
6/11/19 16:44,505
6/11/19 16:44,503
6/11/19 16:44,507
6/11/19 16:44,503
6/11/19 16:44,504
6/11/19 16:44,503
6/11/19 16:44,502
6/11/19 16:44,501
6/11/19 16:44,507
6/11/19 16:44,500
6/11/19 16:44,517
6/11/19 16:44,500
6/11/19 16:44,506
6/11/19 16:44,506
6/11/19 16:44,504
6/11/19 16:44,500
6/11/19 16:44,506
6/11/19 16:44,507
6/11/19 16:44,505
6/11/19 16:44,506
6/11/19 16:44,502
6/11/19 16:44,505
6/11/19 16:44,505
6/11/19 16:44,502
6/11/19 16:44,506
6/11/19 16:44,504
6/11/19 16:44,504
6/11/19 16:44,505
6/11/19 16:44,502
6/11/19 16:44,497
6/11/19 16:44,504
6/11/19 16:44,508
6/11/19 16:44,506
6/11/19 16:44,505
6/11/19 16:44,506
6/11/19 16:44,503
6/11/19 16:44,502
6/11/19 16:44,504
6/11/19 16:44,502
6/11/19 16:44,504
6/11/19 16:44,500
6/11/19 16:44,501
6/11/19 16:44,505
6/11/19 16:44,504
6/11/19 16:44,506
6/11/19 16:44,501
6/11/19 16:44,504
6/11/19 16:44,503
6/11/19 16:44,501
6/11/19 16:44,504
6/11/19 16:44,502
6/11/19 16:44,501
6/11/19 16:44,503
6/11/19 16:44,532
6/11/19 16:44,508
6/11/19 16:44,485
6/11/19 16:44,495
6/11/19 16:44,495
6/11/19 16:44,497
6/11/19 16:44,503
6/11/19 16:44,503
6/11/19 16:44,506
6/11/19 16:44,505
6/11/19 16:44,505
6/11/19 16:44,504
6/11/19 16:44,502
6/11/19 16:44,504
6/11/19 16:44,503
6/11/19 16:44,502
6/11/19 16:44,501
6/11/19 16:44,504
6/11/19 16:44,506
6/11/19 16:44,504
6/11/19 16:44,506
6/11/19 16:44,507
6/11/19 16:44,502
6/11/19 16:44,506
6/11/19 16:44,503
6/11/19 16:44,504
6/11/19 16:44,504
6/11/19 16:44,502
6/11/19 16:44,505
6/11/19 16:44,504
6/11/19 16:44,504
6/11/19 16:44,498
6/11/19 16:44,505
6/11/19 16:44,507
6/11/19 16:44,503
6/11/19 16:44,505
6/11/19 16:44,506
6/11/19 16:44,499
6/11/19 16:44,509
6/11/19 16:44,502
6/11/19 16:44,503
6/11/19 16:44,502
6/11/19 16:44,503
6/11/19 16:44,504
6/11/19 16:44,505
6/11/19 16:44,503
6/11/19 16:44,504
6/11/19 16:44,499
6/11/19 16:44,500
6/11/19 16:44,505
6/11/19 16:44,505
6/11/19 16:44,505
6/11/19 16:44,501
6/11/19 16:44,504
6/11/19 16:44,506
6/11/19 16:44,503
6/11/19 16:44,503
6/11/19 16:44,504
6/11/19 16:44,504
6/11/19 16:44,503
6/11/19 16:44,501
6/11/19 16:44,536
6/11/19 16:44,510
6/11/19 16:44,483
6/11/19 16:44,490
6/11/19 16:44,493
6/11/19 16:44,494
6/11/19 16:44,499
6/11/19 16:44,507
6/11/19 16:44,506
6/11/19 16:44,504
6/11/19 16:44,504
6/11/19 16:44,503
6/11/19 16:44,504
6/11/19 16:44,502
6/11/19 16:44,503
6/11/19 16:44,505
6/11/19 16:44,503
6/11/19 16:44,503
6/11/19 16:44,502
6/11/19 16:44,496
6/11/19 16:44,510
6/11/19 16:44,506
6/11/19 16:44,508
6/11/19 16:44,505
6/11/19 16:44,505
6/11/19 16:44,505
6/11/19 16:44,505
6/11/19 16:44,503
6/11/19 16:44,505
6/11/19 16:44,506
6/11/19 16:44,503
6/11/19 16:44,501
6/11/19 16:44,503
6/11/19 16:44,505
6/11/19 16:44,505
6/11/19 16:44,502
6/11/19 16:44,505
6/11/19 16:44,503
6/11/19 16:44,509
6/11/19 16:44,506
6/11/19 16:44,503
6/11/19 16:44,501
6/11/19 16:44,505
6/11/19 16:44,514
6/11/19 16:44,494
6/11/19 16:44,501
6/11/19 16:44,499
6/11/19 16:44,505
6/11/19 16:44,500
6/11/19 16:44,501
6/11/19 16:44,504
6/11/19 16:44,504
6/11/19 16:44,506
6/11/19 16:44,505
6/11/19 16:44,503
6/11/19 16:44,503
6/11/19 16:44,502
6/11/19 16:44,504
6/11/19 16:44,502
6/11/19 16:44,503
6/11/19 16:44,503
6/11/19 16:44,531
6/11/19 16:44,511
6/11/19 16:44,483
6/11/19 16:44,491
6/11/19 16:44,495
6/11/19 16:44,501
6/11/19 16:44,504
6/11/19 16:44,505
6/11/19 16:44,506
6/11/19 16:44,505
6/11/19 16:44,504
6/11/19 16:44,503
6/11/19 16:44,500
6/11/19 16:44,503
6/11/19 16:44,504
6/11/19 16:44,502
6/11/19 16:44,503
6/11/19 16:44,501
6/11/19 16:44,502
6/11/19 16:44,506
6/11/19 16:44,504
6/11/19 16:44,510
6/11/19 16:44,505
6/11/19 16:44,504
6/11/19 16:44,503
6/11/19 16:44,504
6/11/19 16:44,504
6/11/19 16:44,503
6/11/19 16:44,505
6/11/19 16:44,505
6/11/19 16:44,503
6/11/19 16:44,505
6/11/19 16:44,503
6/11/19 16:44,504
6/11/19 16:44,500
6/11/19 16:44,500
6/11/19 16:44,504
6/11/19 16:44,505
6/11/19 16:44,505
6/11/19 16:44,503
6/11/19 16:44,505
6/11/19 16:44,505
6/11/19 16:44,503
6/11/19 16:44,502
6/11/19 16:44,503
6/11/19 16:44,504
6/11/19 16:44,504
6/11/19 16:44,504
6/11/19 16:44,503
6/11/19 16:44,497
6/11/19 16:44,502
6/11/19 16:44,502
6/11/19 16:44,505
6/11/19 16:44,505
6/11/19 16:44,504
6/11/19 16:44,503
6/11/19 16:44,504
6/11/19 16:44,502
6/11/19 16:44,502
6/11/19 16:44,503
6/11/19 16:44,514
6/11/19 16:44,526
6/11/19 16:44,482
6/11/19 16:44,486
6/11/19 16:44,497
6/11/19 16:44,493
6/11/19 16:44,500
6/11/19 16:44,510
6/11/19 16:44,505
6/11/19 16:44,509
6/11/19 16:44,500
6/11/19 16:44,501
6/11/19 16:44,501
6/11/19 16:44,501
6/11/19 16:44,503
6/11/19 16:44,504
6/11/19 16:44,503
6/11/19 16:44,503
6/11/19 16:44,502
6/11/19 16:44,502
6/11/19 16:44,501
6/11/19 16:44,506
6/11/19 16:44,507
6/11/19 16:44,510
6/11/19 16:44,507
6/11/19 16:44,505
6/11/19 16:44,505
6/11/19 16:44,504
6/11/19 16:44,507
6/11/19 16:44,504
6/11/19 16:44,503
6/11/19 16:44,503
6/11/19 16:44,501
6/11/19 16:44,504
6/11/19 16:44,506
6/11/19 16:44,499
6/11/19 16:44,507
6/11/19 16:44,504
6/11/19 16:44,505
6/11/19 16:44,502
6/11/19 16:44,508
6/11/19 16:44,506
6/11/19 16:44,502
6/11/19 16:44,504
6/11/19 16:44,504
6/11/19 16:44,504
6/11/19 16:44,500
6/11/19 16:44,506
6/11/19 16:44,507
6/11/19 16:44,501
6/11/19 16:44,503
6/11/19 16:44,498
6/11/19 16:44,504
6/11/19 16:44,505
6/11/19 16:44,500
6/11/19 16:44,504
6/11/19 16:44,503
6/11/19 16:44,502
6/11/19 16:44,504
6/11/19 16:44,504
6/11/19 16:44,502
6/11/19 16:44,503
6/11/19 16:44,502
6/11/19 16:44,505
6/11/19 16:44,502
6/11/19 16:44,503
6/11/19 16:44,497
6/11/19 16:44,539
6/11/19 16:44,499
6/11/19 16:44,478
6/11/19 16:44,496
6/11/19 16:44,497
6/11/19 16:44,501
6/11/19 16:44,503
6/11/19 16:44,505
6/11/19 16:44,503
6/11/19 16:44,503
6/11/19 16:44,502
6/11/19 16:44,503
6/11/19 16:44,502
6/11/19 16:44,503
6/11/19 16:44,503
6/11/19 16:44,502
6/11/19 16:44,505
6/11/19 16:44,503
6/11/19 16:44,506
6/11/19 16:44,499
6/11/19 16:44,506
6/11/19 16:44,507
6/11/19 16:44,506
6/11/19 16:44,506
6/11/19 16:44,507
6/11/19 16:44,505
6/11/19 16:44,505
6/11/19 16:44,503
6/11/19 16:44,497
6/11/19 16:44,523
6/11/19 16:44,503
6/11/19 16:44,502
6/11/19 16:44,500
6/11/19 16:44,502
6/11/19 16:44,503
6/11/19 16:44,504
6/11/19 16:44,501
6/11/19 16:44,503
6/11/19 16:44,504
6/11/19 16:44,504
6/11/19 16:44,504
6/11/19 16:44,500
6/11/19 16:44,506
6/11/19 16:44,506
6/11/19 16:44,505
6/11/19 16:44,501
6/11/19 16:44,507
6/11/19 16:44,503
6/11/19 16:44,504
6/11/19 16:44,502
6/11/19 16:44,497
6/11/19 16:44,504
6/11/19 16:44,504
6/11/19 16:44,506
6/11/19 16:44,503
6/11/19 16:44,504
6/11/19 16:44,502
6/11/19 16:44,501
6/11/19 16:44,503
6/11/19 16:44,502
6/11/19 16:44,502
6/11/19 16:44,501
6/11/19 16:44,503
6/11/19 16:44,536
6/11/19 16:44,484
6/11/19 16:44,482
6/11/19 16:44,485
6/11/19 16:44,501
6/11/19 16:44,505
6/11/19 16:44,504
6/11/19 16:44,504
6/11/19 16:44,506
6/11/19 16:44,505
6/11/19 16:44,506
6/11/19 16:44,502
6/11/19 16:44,505
6/11/19 16:44,504
6/11/19 16:44,501
6/11/19 16:44,500
6/11/19 16:44,501
6/11/19 16:44,502
6/11/19 16:44,503
6/11/19 16:44,505
6/11/19 16:44,499
6/11/19 16:44,506
6/11/19 16:44,507
6/11/19 16:44,506
6/11/19 16:44,506
6/11/19 16:44,506
6/11/19 16:44,504
6/11/19 16:44,506
6/11/19 16:44,510
6/11/19 16:44,503
6/11/19 16:44,505
6/11/19 16:44,503
6/11/19 16:44,502
6/11/19 16:44,505
6/11/19 16:44,503
6/11/19 16:44,505
6/11/19 16:44,503
6/11/19 16:44,502
6/11/19 16:44,503
6/11/19 16:44,497
6/11/19 16:44,503
6/11/19 16:44,504
6/11/19 16:44,507
6/11/19 16:44,506
6/11/19 16:44,504
6/11/19 16:44,507
6/11/19 16:44,505
6/11/19 16:44,501
6/11/19 16:44,505
6/11/19 16:44,503
6/11/19 16:44,504
6/11/19 16:44,502
6/11/19 16:44,503
6/11/19 16:44,501
6/11/19 16:44,502
6/11/19 16:44,503
6/11/19 16:44,501
6/11/19 16:44,501
6/11/19 16:44,503
6/11/19 16:44,502
6/11/19 16:44,505
6/11/19 16:44,499
6/11/19 16:44,534
6/11/19 16:44,485
6/11/19 16:44,489
6/11/19 16:44,490
6/11/19 16:44,498
6/11/19 16:44,503
6/11/19 16:44,504
6/11/19 16:44,504
6/11/19 16:44,504
6/11/19 16:44,503
6/11/19 16:44,505
6/11/19 16:44,500
6/11/19 16:44,507
6/11/19 16:44,508
6/11/19 16:44,503
6/11/19 16:44,506
6/11/19 16:44,506
6/11/19 16:44,503
6/11/19 16:44,506
6/11/19 16:44,505
6/11/19 16:44,505
6/11/19 16:44,505
6/11/19 16:44,504
6/11/19 16:44,503
6/11/19 16:44,502
6/11/19 16:44,499
6/11/19 16:44,503
6/11/19 16:44,510
6/11/19 16:44,506
6/11/19 16:44,505
6/11/19 16:44,506
6/11/19 16:44,505
6/11/19 16:44,502
6/11/19 16:44,504
6/11/19 16:44,502
6/11/19 16:44,504
6/11/19 16:44,503
6/11/19 16:44,505
6/11/19 16:44,503
6/11/19 16:44,503
6/11/19 16:44,503
6/11/19 16:44,502
6/11/19 16:44,497
6/11/19 16:44,506
6/11/19 16:44,504
6/11/19 16:44,504
6/11/19 16:44,504
6/11/19 16:44,507
6/11/19 16:44,506
6/11/19 16:44,502
6/11/19 16:44,504
6/11/19 16:44,501
6/11/19 16:44,503
6/11/19 16:44,495
6/11/19 16:44,505
6/11/19 16:44,503
6/11/19 16:44,504
6/11/19 16:44,503
6/11/19 16:44,504
6/11/19 16:44,503
6/11/19 16:44,504
6/11/19 16:44,501
6/11/19 16:44,508
6/11/19 16:44,529
6/11/19 16:44,479
6/11/19 16:44,490
6/11/19 16:44,496
6/11/19 16:44,496
6/11/19 16:44,500
6/11/19 16:44,502
6/11/19 16:44,506
6/11/19 16:44,503
6/11/19 16:44,499
6/11/19 16:44,504
6/11/19 16:44,507
6/11/19 16:44,506
6/11/19 16:44,503
6/11/19 16:44,504
6/11/19 16:44,506
6/11/19 16:44,502
6/11/19 16:44,507
6/11/19 16:44,504
6/11/19 16:44,504
6/11/19 16:44,503
6/11/19 16:44,504
6/11/19 16:44,505
6/11/19 16:44,503
6/11/19 16:44,503
6/11/19 16:44,501
6/11/19 16:44,503
6/11/19 16:44,509
6/11/19 16:44,508
6/11/19 16:44,504
6/11/19 16:44,504
6/11/19 16:44,504
6/11/19 16:44,505
6/11/19 16:44,503
6/11/19 16:44,504
6/11/19 16:44,505
6/11/19 16:44,503
6/11/19 16:44,503
6/11/19 16:44,503
6/11/19 16:44,503
6/11/19 16:44,505
6/11/19 16:44,503
6/11/19 16:44,502
6/11/19 16:44,500
6/11/19 16:44,505
6/11/19 16:44,507
6/11/19 16:44,505
6/11/19 16:44,505
6/11/19 16:44,501
6/11/19 16:44,503
6/11/19 16:44,504
6/11/19 16:44,504
6/11/19 16:44,500
6/11/19 16:44,501
6/11/19 16:44,504
6/11/19 16:44,505
6/11/19 16:44,505
6/11/19 16:44,502
6/11/19 16:44,502
6/11/19 16:44,503
6/11/19 16:44,503
6/11/19 16:44,503
6/11/19 16:44,539
6/11/19 16:44,491
6/11/19 16:44,483
6/11/19 16:44,483
6/11/19 16:44,498
6/11/19 16:44,504
6/11/19 16:44,503
6/11/19 16:44,504
6/11/19 16:44,505
6/11/19 16:53,503
6/11/19 16:53,503
6/11/19 16:53,503
6/11/19 16:53,503
6/11/19 16:53,503
6/11/19 16:53,503
6/11/19 16:53,503
6/11/19 16:53,502
6/11/19 16:53,502
6/11/19 16:53,501
6/11/19 16:53,502
6/11/19 16:53,503
6/11/19 16:53,502
6/11/19 16:53,502
6/11/19 16:53,503
6/11/19 16:53,503
6/11/19 16:53,502
6/11/19 16:53,503
6/11/19 16:53,530
6/11/19 16:53,510
6/11/19 16:53,484
6/11/19 16:53,491
6/11/19 16:53,496
6/11/19 16:53,501
6/11/19 16:53,504
6/11/19 16:53,505
6/11/19 16:53,505
6/11/19 16:53,505
6/11/19 16:53,505
6/11/19 16:53,504
6/11/19 16:53,504
6/11/19 16:53,497
6/11/19 16:53,507
6/11/19 16:53,504
6/11/19 16:53,504
6/11/19 16:53,504
6/11/19 16:53,502
6/11/19 16:53,504
6/11/19 16:53,503
6/11/19 16:53,505
6/11/19 16:53,505
6/11/19 16:53,504
6/11/19 16:53,505
6/11/19 16:53,505
6/11/19 16:53,505
6/11/19 16:53,503
6/11/19 16:53,504
6/11/19 16:53,505
6/11/19 16:53,503
6/11/19 16:53,504
6/11/19 16:53,503
6/11/19 16:53,501
6/11/19 16:53,503
6/11/19 16:53,505
6/11/19 16:53,500
6/11/19 16:53,505
6/11/19 16:53,507
6/11/19 16:53,506
6/11/19 16:53,504
6/11/19 16:53,503
6/11/19 16:53,505
6/11/19 16:53,504
6/11/19 16:53,505
6/11/19 16:53,503
6/11/19 16:53,503
6/11/19 16:53,503
6/11/19 16:53,503
6/11/19 16:53,502
6/11/19 16:53,503
6/11/19 16:53,503
6/11/19 16:53,504
6/11/19 16:53,500
6/11/19 16:53,501
6/11/19 16:53,505
6/11/19 16:53,506
6/11/19 16:53,504
6/11/19 16:53,505
6/11/19 16:53,504
6/11/19 16:53,502
6/11/19 16:53,501
6/11/19 16:53,502
6/11/19 16:53,506
6/11/19 16:53,505
6/11/19 16:53,535
6/11/19 16:53,504
6/11/19 16:53,483
6/11/19 16:53,491
6/11/19 16:53,496
6/11/19 16:53,501
6/11/19 16:53,505
6/11/19 16:53,504
6/11/19 16:53,506
6/11/19 16:53,505
6/11/19 16:53,504
6/11/19 16:53,503
6/11/19 16:53,505
6/11/19 16:53,502
6/11/19 16:53,502
6/11/19 16:53,502
6/11/19 16:53,501
6/11/19 16:53,504
6/11/19 16:53,507
6/11/19 16:53,504
6/11/19 16:53,504
6/11/19 16:53,506
6/11/19 16:53,505
6/11/19 16:53,503
6/11/19 16:53,505
6/11/19 16:53,505
6/11/19 16:53,506
6/11/19 16:53,504
6/11/19 16:53,503
6/11/19 16:53,504
6/11/19 16:53,505
6/11/19 16:53,503
6/11/19 16:53,501
6/11/19 16:53,504
6/11/19 16:53,504
6/11/19 16:53,504
6/11/19 16:53,504
6/11/19 16:53,504
6/11/19 16:53,505
6/11/19 16:53,504
6/11/19 16:53,503
6/11/19 16:53,504
6/11/19 16:53,502
6/11/19 16:53,501
6/11/19 16:53,503
6/11/19 16:53,503
6/11/19 16:53,506
6/11/19 16:53,504
6/11/19 16:53,505
6/11/19 16:53,502
6/11/19 16:53,504
6/11/19 16:53,503
6/11/19 16:53,503
6/11/19 16:53,502
6/11/19 16:53,503
6/11/19 16:53,502
6/11/19 16:53,503
6/11/19 16:53,503
6/11/19 16:53,503
6/11/19 16:53,502
6/11/19 16:53,502
6/11/19 16:53,505
6/11/19 16:53,503
6/11/19 16:53,530
6/11/19 16:53,518
6/11/19 16:53,484
6/11/19 16:53,488
6/11/19 16:53,495
6/11/19 16:53,499
6/11/19 16:53,502
6/11/19 16:53,505
6/11/19 16:53,507
6/11/19 16:53,502
6/11/19 16:53,503
6/11/19 16:53,505
6/11/19 16:53,502
6/11/19 16:53,505
6/11/19 16:53,503
6/11/19 16:53,504
6/11/19 16:53,504
6/11/19 16:53,504
6/11/19 16:53,505
6/11/19 16:53,503
6/11/19 16:53,503
6/11/19 16:53,503
6/11/19 16:53,502
6/11/19 16:53,507
6/11/19 16:53,505
6/11/19 16:53,503
6/11/19 16:53,505
6/11/19 16:53,506
6/11/19 16:53,504
6/11/19 16:53,504
6/11/19 16:53,505
6/11/19 16:53,504
6/11/19 16:53,504
6/11/19 16:53,503
6/11/19 16:53,503
6/11/19 16:53,501
6/11/19 16:53,502
6/11/19 16:53,507
6/11/19 16:53,506
6/11/19 16:53,503
6/11/19 16:53,506
6/11/19 16:53,504
6/11/19 16:53,503
6/11/19 16:53,504
6/11/19 16:53,502
6/11/19 16:53,505
6/11/19 16:53,505
6/11/19 16:53,504
6/11/19 16:53,503
6/11/19 16:53,502
6/11/19 16:53,503
6/11/19 16:53,501
6/11/19 16:53,503
6/11/19 16:53,503
6/11/19 16:53,501
6/11/19 16:53,501
6/11/19 16:53,502
6/11/19 16:53,506
6/11/19 16:53,504
6/11/19 16:53,503
6/11/19 16:53,503
6/11/19 16:53,503
6/11/19 16:53,503
6/11/19 16:53,504
6/11/19 16:53,503
6/11/19 16:53,507
6/11/19 16:53,538
6/11/19 16:53,490
6/11/19 16:53,486
6/11/19 16:53,494
6/11/19 16:53,496
6/11/19 16:53,499
6/11/19 16:53,502
6/11/19 16:53,501
6/11/19 16:53,501
6/11/19 16:53,508
6/11/19 16:53,505
6/11/19 16:53,506
6/11/19 16:53,504
6/11/19 16:53,502
6/11/19 16:53,505
6/11/19 16:53,505
6/11/19 16:53,504
6/11/19 16:53,505
6/11/19 16:53,502
6/11/19 16:53,499
6/11/19 16:53,502
6/11/19 16:53,506
6/11/19 16:53,506
6/11/19 16:53,504
6/11/19 16:53,504
6/11/19 16:53,503
6/11/19 16:53,504
6/11/19 16:53,503
6/11/19 16:53,505
6/11/19 16:53,504
6/11/19 16:53,505
6/11/19 16:53,503
6/11/19 16:53,501
6/11/19 16:53,506
6/11/19 16:53,507
6/11/19 16:53,505
6/11/19 16:53,503
6/11/19 16:53,504
6/11/19 16:53,501
6/11/19 16:53,503
6/11/19 16:53,503
6/11/19 16:53,503
6/11/19 16:53,503
6/11/19 16:53,502
6/11/19 16:53,504
6/11/19 16:53,502
6/11/19 16:53,503
6/11/19 16:53,502
6/11/19 16:53,501
6/11/19 16:53,501
6/11/19 16:53,503
6/11/19 16:53,505
6/11/19 16:53,505
6/11/19 16:53,506
6/11/19 16:53,503
6/11/19 16:53,504
6/11/19 16:53,503
6/11/19 16:53,502
6/11/19 16:53,504
6/11/19 16:53,503
6/11/19 16:53,501
6/11/19 16:53,502
6/11/19 16:53,504
6/11/19 16:53,503
6/11/19 16:53,539
6/11/19 16:53,498
6/11/19 16:53,483
6/11/19 16:53,495
6/11/19 16:53,498
6/11/19 16:53,499
6/11/19 16:53,502
6/11/19 16:53,504
6/11/19 16:53,501
6/11/19 16:53,504
6/11/19 16:53,503
6/11/19 16:53,502
6/11/19 16:53,503
6/11/19 16:53,502
6/11/19 16:53,500
6/11/19 16:53,506
6/11/19 16:53,504
6/11/19 16:53,501
6/11/19 16:53,504
6/11/19 16:53,505
6/11/19 16:53,506
6/11/19 16:53,506
6/11/19 16:53,506
6/11/19 16:53,504
6/11/19 16:53,504
6/11/19 16:53,504
6/11/19 16:53,504
6/11/19 16:53,504
6/11/19 16:53,504
6/11/19 16:53,505
6/11/19 16:53,504
6/11/19 16:53,505
6/11/19 16:53,503
6/11/19 16:53,505
6/11/19 16:53,505
6/11/19 16:53,502
6/11/19 16:53,501
6/11/19 16:53,505
6/11/19 16:53,504
6/11/19 16:53,504
6/11/19 16:53,504
6/11/19 16:53,505
6/11/19 16:53,504
6/11/19 16:53,502
6/11/19 16:53,503
6/11/19 16:53,505
6/11/19 16:53,502
6/11/19 16:53,503
6/11/19 16:53,503
6/11/19 16:53,504
6/11/19 16:53,502
6/11/19 16:53,502
6/11/19 16:53,503
6/11/19 16:53,503
6/11/19 16:53,503
6/11/19 16:53,503
6/11/19 16:53,502
6/11/19 16:53,500
6/11/19 16:53,502
6/11/19 16:53,502
6/11/19 16:53,503
6/11/19 16:53,504
6/11/19 16:53,505
6/11/19 16:53,504
6/11/19 16:53,536
6/11/19 16:53,491
6/11/19 16:53,488
6/11/19 16:53,494
6/11/19 16:53,495
6/11/19 16:53,500
6/11/19 16:53,502
6/11/19 16:53,503
6/11/19 16:53,506
6/11/19 16:53,505
6/11/19 16:53,505
6/11/19 16:53,505
6/11/19 16:53,500
6/11/19 16:53,504
6/11/19 16:53,504
6/11/19 16:53,505
6/11/19 16:53,505
6/11/19 16:53,505
6/11/19 16:53,503
6/11/19 16:53,503
6/11/19 16:53,505
6/11/19 16:53,504
6/11/19 16:53,503
6/11/19 16:53,505
6/11/19 16:53,502
6/11/19 16:53,502
6/11/19 16:53,504
6/11/19 16:53,503
6/11/19 16:53,504
6/11/19 16:53,504
6/11/19 16:53,516
6/11/19 16:53,509
6/11/19 16:53,500
6/11/19 16:53,501
6/11/19 16:53,499
6/11/19 16:53,501
6/11/19 16:53,501
6/11/19 16:53,502
6/11/19 16:53,502
6/11/19 16:53,503
6/11/19 16:53,505
6/11/19 16:53,504
6/11/19 16:53,505
6/11/19 16:53,506
6/11/19 16:53,499
6/11/19 16:53,502
6/11/19 16:53,505
6/11/19 16:53,505
6/11/19 16:53,506
6/11/19 16:53,503
6/11/19 16:53,504
6/11/19 16:53,502
6/11/19 16:53,503
6/11/19 16:53,504
6/11/19 16:53,502
6/11/19 16:53,504
6/11/19 16:53,502
6/11/19 16:53,502
6/11/19 16:53,499
6/11/19 16:53,500
6/11/19 16:53,504
6/11/19 16:53,504
6/11/19 16:53,503
6/11/19 16:53,539
6/11/19 16:53,500
6/11/19 16:53,487
6/11/19 16:53,493
6/11/19 16:53,496
6/11/19 16:53,501
6/11/19 16:53,500
6/11/19 16:53,503
6/11/19 16:53,504
6/11/19 16:53,503
6/11/19 16:53,504
6/11/19 16:53,502
6/11/19 16:53,504
6/11/19 16:53,504
6/11/19 16:53,503
6/11/19 16:53,498
6/11/19 16:53,503
6/11/19 16:53,504
6/11/19 16:53,504
6/11/19 16:53,505
6/11/19 16:53,505
6/11/19 16:53,503
6/11/19 16:53,505
6/11/19 16:53,505
6/11/19 16:53,504
6/11/19 16:53,504
6/11/19 16:53,503
6/11/19 16:53,505
6/11/19 16:53,505
6/11/19 16:53,505
6/11/19 16:53,505
6/11/19 16:53,505
6/11/19 16:53,506
6/11/19 16:53,504
6/11/19 16:53,504
6/11/19 16:53,502
6/11/19 16:53,503
6/11/19 16:53,503
6/11/19 16:53,503
6/11/19 16:53,504
6/11/19 16:53,503
6/11/19 16:53,501
6/11/19 16:53,502
6/11/19 16:53,504
6/11/19 16:53,506
6/11/19 16:53,505
6/11/19 16:53,505
6/11/19 16:53,505
6/11/19 16:53,504
6/11/19 16:53,504
6/11/19 16:53,503
6/11/19 16:53,502
6/11/19 16:53,503
6/11/19 16:53,502
6/11/19 16:53,503
6/11/19 16:53,503
6/11/19 16:53,502
6/11/19 16:53,504
6/11/19 16:53,503
6/11/19 16:53,503
6/11/19 16:53,498
6/11/19 16:53,504
6/11/19 16:53,504
6/11/19 16:53,505
6/11/19 16:53,504
6/11/19 16:53,538
6/11/19 16:53,491
6/11/19 16:53,486
6/11/19 16:53,491
6/11/19 16:53,498
6/11/19 16:53,500
6/11/19 16:53,502
6/11/19 16:53,502
6/11/19 16:53,498
6/11/19 16:53,504
6/11/19 16:53,505
6/11/19 16:53,504
6/11/19 16:53,505
6/11/19 16:53,505
6/11/19 16:53,504
6/11/19 16:53,503
6/11/19 16:53,503
6/11/19 16:53,504
6/11/19 16:53,503
6/11/19 16:53,501
6/11/19 16:53,499
6/11/19 16:53,507
6/11/19 16:53,507
6/11/19 16:53,504
6/11/19 16:53,504
6/11/19 16:53,505
6/11/19 16:53,504
6/11/19 16:53,504
6/11/19 16:53,505
6/11/19 16:53,503
6/11/19 16:53,502
6/11/19 16:53,503
6/11/19 16:53,504
6/11/19 16:53,504
6/11/19 16:53,503
6/11/19 16:53,500
6/11/19 16:53,505
6/11/19 16:53,506
6/11/19 16:53,505
6/11/19 16:53,504
6/11/19 16:53,505
6/11/19 16:53,505
6/11/19 16:53,505
6/11/19 16:53,502
6/11/19 16:53,503
6/11/19 16:53,502
6/11/19 16:53,504
6/11/19 16:53,503
6/11/19 16:53,503
6/11/19 16:53,503
6/11/19 16:53,499
6/11/19 16:53,502
6/11/19 16:53,503
6/11/19 16:53,504
6/11/19 16:53,504
6/11/19 16:53,503
6/11/19 16:53,504
6/11/19 16:53,503
6/11/19 16:53,503
6/11/19 16:53,503
6/11/19 16:53,502
6/11/19 16:53,503
6/11/19 16:53,503
6/11/19 16:53,529
6/11/19 16:53,519
6/11/19 16:53,478
6/11/19 16:53,481
6/11/19 16:53,497
6/11/19 16:53,501
6/11/19 16:53,505
6/11/19 16:53,505
6/11/19 16:53,505
6/11/19 16:53,506
6/11/19 16:53,504
6/11/19 16:53,507
6/11/19 16:53,505
6/11/19 16:53,505
6/11/19 16:53,504
6/11/19 16:53,504
6/11/19 16:53,503
6/11/19 16:53,502
6/11/19 16:53,504
6/11/19 16:53,504
6/11/19 16:53,504
6/11/19 16:53,505
6/11/19 16:53,503
6/11/19 16:53,505
6/11/19 16:53,503
6/11/19 16:53,501
6/11/19 16:53,505
6/11/19 16:53,506
6/11/19 16:53,506
6/11/19 16:53,506
6/11/19 16:53,505
6/11/19 16:53,505
6/11/19 16:53,503
6/11/19 16:53,505
6/11/19 16:53,505
6/11/19 16:53,503
6/11/19 16:53,504
6/11/19 16:53,502
6/11/19 16:53,503
6/11/19 16:53,504
6/11/19 16:53,504
6/11/19 16:53,503
6/11/19 16:53,503
6/11/19 16:53,503
6/11/19 16:53,502
6/11/19 16:53,503
6/11/19 16:53,503
6/11/19 16:53,503
6/11/19 16:53,506
6/11/19 16:53,502
6/11/19 16:53,501
6/11/19 16:53,502
6/11/19 16:53,505
6/11/19 16:53,504
6/11/19 16:53,505
6/11/19 16:53,503
6/11/19 16:53,504
6/11/19 16:53,503
6/11/19 16:53,503
6/11/19 16:53,502
6/11/19 16:53,504
6/11/19 16:53,504
6/11/19 16:53,503
6/11/19 16:53,503
6/11/19 16:53,501
6/11/19 16:53,502
6/11/19 16:53,532
6/11/19 16:53,486
6/11/19 16:53,488
6/11/19 17:02,505
6/11/19 17:02,505
6/11/19 17:02,505
6/11/19 17:02,503
6/11/19 17:02,503
6/11/19 17:02,503
6/11/19 17:02,504
6/11/19 17:02,502
6/11/19 17:02,517
6/11/19 17:02,527
6/11/19 17:02,479
6/11/19 17:02,489
6/11/19 17:02,489
6/11/19 17:02,495
6/11/19 17:02,503
6/11/19 17:02,504
6/11/19 17:02,507
6/11/19 17:02,506
6/11/19 17:02,505
6/11/19 17:02,505
6/11/19 17:02,505
6/11/19 17:02,505
6/11/19 17:02,504
6/11/19 17:02,501
6/11/19 17:02,504
6/11/19 17:02,502
6/11/19 17:02,499
6/11/19 17:02,502
6/11/19 17:02,504
6/11/19 17:02,505
6/11/19 17:02,505
6/11/19 17:02,506
6/11/19 17:02,503
6/11/19 17:02,505
6/11/19 17:02,505
6/11/19 17:02,505
6/11/19 17:02,504
6/11/19 17:02,503
6/11/19 17:02,503
6/11/19 17:02,504
6/11/19 17:02,502
6/11/19 17:02,505
6/11/19 17:02,503
6/11/19 17:02,504
6/11/19 17:02,503
6/11/19 17:02,502
6/11/19 17:02,504
6/11/19 17:02,502
6/11/19 17:02,503
6/11/19 17:02,504
6/11/19 17:02,503
6/11/19 17:02,504
6/11/19 17:02,504
6/11/19 17:02,501
6/11/19 17:02,501
6/11/19 17:02,504
6/11/19 17:02,505
6/11/19 17:02,505
6/11/19 17:02,504
6/11/19 17:02,503
6/11/19 17:02,503
6/11/19 17:02,504
6/11/19 17:02,502
6/11/19 17:02,503
6/11/19 17:02,505
6/11/19 17:02,499
6/11/19 17:02,502
6/11/19 17:02,505
6/11/19 17:02,504
6/11/19 17:02,504
6/11/19 17:02,502
6/11/19 17:02,503
6/11/19 17:02,503
6/11/19 17:02,505
6/11/19 17:02,505
6/11/19 17:02,503
6/11/19 17:02,505
6/11/19 17:02,533
6/11/19 17:02,484
6/11/19 17:02,488
6/11/19 17:02,488
6/11/19 17:02,493
6/11/19 17:02,503
6/11/19 17:02,506
6/11/19 17:02,508
6/11/19 17:02,506
6/11/19 17:02,505
6/11/19 17:02,504
6/11/19 17:02,503
6/11/19 17:02,504
6/11/19 17:02,500
6/11/19 17:02,503
6/11/19 17:02,504
6/11/19 17:02,503
6/11/19 17:02,504
6/11/19 17:02,516
6/11/19 17:02,502
6/11/19 17:02,501
6/11/19 17:02,501
6/11/19 17:02,503
6/11/19 17:02,504
6/11/19 17:02,504
6/11/19 17:02,505
6/11/19 17:02,505
6/11/19 17:02,506
6/11/19 17:02,505
6/11/19 17:02,505
6/11/19 17:02,502
6/11/19 17:02,503
6/11/19 17:02,501
6/11/19 17:02,506
6/11/19 17:02,505
6/11/19 17:02,506
6/11/19 17:02,505
6/11/19 17:02,504
6/11/19 17:02,503
6/11/19 17:02,503
6/11/19 17:02,502
6/11/19 17:02,507
6/11/19 17:02,505
6/11/19 17:02,503
6/11/19 17:02,504
6/11/19 17:02,501
6/11/19 17:02,503
6/11/19 17:02,503
6/11/19 17:02,502
6/11/19 17:02,505
6/11/19 17:02,500
6/11/19 17:02,501
6/11/19 17:02,506
6/11/19 17:02,504
6/11/19 17:02,507
6/11/19 17:02,503
6/11/19 17:02,505
6/11/19 17:02,504
6/11/19 17:02,502
6/11/19 17:02,503
6/11/19 17:02,503
6/11/19 17:02,504
6/11/19 17:02,504
6/11/19 17:02,503
6/11/19 17:02,502
6/11/19 17:02,502
6/11/19 17:02,502
6/11/19 17:02,504
6/11/19 17:02,504
6/11/19 17:02,503
6/11/19 17:02,508
6/11/19 17:02,528
6/11/19 17:02,482
6/11/19 17:02,488
6/11/19 17:02,492
6/11/19 17:02,499
6/11/19 17:02,505
6/11/19 17:02,506
6/11/19 17:02,504
6/11/19 17:02,505
6/11/19 17:02,504
6/11/19 17:02,503
6/11/19 17:02,504
6/11/19 17:02,504
6/11/19 17:02,505
6/11/19 17:02,503
6/11/19 17:02,515
6/11/19 17:02,502
6/11/19 17:02,499
6/11/19 17:02,504
6/11/19 17:02,502
6/11/19 17:02,503
6/11/19 17:02,504
6/11/19 17:02,503
6/11/19 17:02,505
6/11/19 17:02,504
6/11/19 17:02,503
6/11/19 17:02,504
6/11/19 17:02,505
6/11/19 17:02,505
6/11/19 17:02,505
6/11/19 17:02,504
6/11/19 17:02,502
6/11/19 17:02,501
6/11/19 17:02,505
6/11/19 17:02,506
6/11/19 17:02,505
6/11/19 17:02,507
6/11/19 17:02,503
6/11/19 17:02,505
6/11/19 17:02,502
6/11/19 17:02,503
6/11/19 17:02,503
6/11/19 17:02,503
6/11/19 17:02,504
6/11/19 17:02,505
6/11/19 17:02,503
6/11/19 17:02,503
6/11/19 17:02,504
6/11/19 17:02,505
6/11/19 17:02,502
6/11/19 17:02,503
6/11/19 17:02,501
6/11/19 17:02,502
6/11/19 17:02,504
6/11/19 17:02,506
6/11/19 17:02,506
6/11/19 17:02,504
6/11/19 17:02,504
6/11/19 17:02,503
6/11/19 17:02,501
6/11/19 17:02,503
6/11/19 17:02,502
6/11/19 17:02,502
6/11/19 17:02,504
6/11/19 17:02,503
6/11/19 17:02,503
6/11/19 17:02,503
6/11/19 17:02,504
6/11/19 17:02,503
6/11/19 17:02,501
6/11/19 17:02,499
6/11/19 17:02,501
6/11/19 17:02,501
6/11/19 17:02,505
6/11/19 17:02,504
6/11/19 17:02,525
6/11/19 17:02,524
6/11/19 17:02,483
6/11/19 17:02,492
6/11/19 17:02,493
6/11/19 17:02,501
6/11/19 17:02,503
6/11/19 17:02,504
6/11/19 17:02,506
6/11/19 17:02,504
6/11/19 17:02,505
6/11/19 17:02,504
6/11/19 17:02,504
6/11/19 17:02,505
6/11/19 17:02,503
6/11/19 17:02,503
6/11/19 17:02,497
6/11/19 17:02,503
6/11/19 17:02,504
6/11/19 17:02,506
6/11/19 17:02,507
6/11/19 17:02,505
6/11/19 17:02,504
6/11/19 17:02,503
6/11/19 17:02,504
6/11/19 17:02,505
6/11/19 17:02,503
6/11/19 17:02,504
6/11/19 17:02,506
6/11/19 17:02,505
6/11/19 17:02,505
6/11/19 17:02,504
6/11/19 17:02,504
6/11/19 17:02,503
6/11/19 17:02,502
6/11/19 17:02,500
6/11/19 17:02,502
6/11/19 17:02,502
6/11/19 17:02,504
6/11/19 17:02,504
6/11/19 17:02,506
6/11/19 17:02,505
6/11/19 17:02,504
6/11/19 17:02,501
6/11/19 17:02,503
6/11/19 17:02,505
6/11/19 17:02,503
6/11/19 17:02,503
6/11/19 17:02,502
6/11/19 17:02,504
6/11/19 17:02,504
6/11/19 17:02,503
6/11/19 17:02,504
6/11/19 17:02,502
6/11/19 17:02,504
6/11/19 17:02,503
6/11/19 17:02,502
6/11/19 17:02,503
6/11/19 17:02,504
6/11/19 17:02,503
6/11/19 17:02,500
6/11/19 17:02,502
6/11/19 17:02,505
6/11/19 17:02,503
6/11/19 17:02,504
6/11/19 17:02,505
6/11/19 17:02,501
6/11/19 17:02,504
6/11/19 17:02,504
6/11/19 17:02,501
6/11/19 17:02,535
6/11/19 17:02,513
6/11/19 17:02,483
6/11/19 17:02,491
6/11/19 17:02,496
6/11/19 17:02,502
6/11/19 17:02,501
6/11/19 17:02,502
6/11/19 17:02,502
6/11/19 17:02,503
6/11/19 17:02,503
6/11/19 17:02,504
6/11/19 17:02,505
6/11/19 17:02,504
6/11/19 17:02,500
6/11/19 17:02,505
6/11/19 17:02,505
6/11/19 17:02,505
6/11/19 17:02,506
6/11/19 17:02,503
6/11/19 17:02,506
6/11/19 17:02,504
6/11/19 17:02,506
6/11/19 17:02,505
6/11/19 17:02,505
6/11/19 17:02,504
6/11/19 17:02,506
6/11/19 17:02,505
6/11/19 17:02,502
6/11/19 17:02,501
6/11/19 17:02,505
6/11/19 17:02,504
6/11/19 17:02,505
6/11/19 17:02,505
6/11/19 17:02,506
6/11/19 17:02,506
6/11/19 17:02,503
6/11/19 17:02,503
6/11/19 17:02,502
6/11/19 17:02,504
6/11/19 17:02,504
6/11/19 17:02,504
6/11/19 17:02,504
6/11/19 17:02,503
6/11/19 17:02,504
6/11/19 17:02,503
6/11/19 17:02,499
6/11/19 17:02,505
6/11/19 17:02,503
6/11/19 17:02,502
6/11/19 17:02,505
6/11/19 17:02,503
6/11/19 17:02,504
6/11/19 17:02,504
6/11/19 17:02,505
6/11/19 17:02,505
6/11/19 17:02,505
6/11/19 17:02,502
6/11/19 17:02,502
6/11/19 17:02,503
6/11/19 17:02,504
6/11/19 17:02,501
6/11/19 17:02,503
6/11/19 17:02,503
6/11/19 17:02,503
6/11/19 17:02,503
6/11/19 17:02,501
6/11/19 17:02,503
6/11/19 17:02,501
6/11/19 17:02,502
6/11/19 17:02,504
6/11/19 17:02,506
6/11/19 17:02,505
6/11/19 17:02,504
6/11/19 17:02,505
6/11/19 17:02,503
6/11/19 17:02,503
6/11/19 17:02,503
6/11/19 17:02,503
6/11/19 17:02,503
6/11/19 17:02,505
6/11/19 17:02,505
6/11/19 17:02,534
6/11/19 17:02,481
6/11/19 17:02,488
6/11/19 17:02,492
6/11/19 17:02,499
6/11/19 17:02,501
6/11/19 17:02,498
6/11/19 17:02,506
6/11/19 17:02,506
6/11/19 17:02,506
6/11/19 17:02,506
6/11/19 17:02,505
6/11/19 17:02,506
6/11/19 17:02,504
6/11/19 17:02,505
6/11/19 17:02,504
6/11/19 17:02,502
6/11/19 17:02,505
6/11/19 17:02,503
6/11/19 17:02,503
6/11/19 17:02,505
6/11/19 17:02,503
6/11/19 17:02,505
6/11/19 17:02,503
6/11/19 17:02,501
6/11/19 17:02,501
6/11/19 17:02,505
6/11/19 17:02,505
6/11/19 17:02,505
6/11/19 17:02,504
6/11/19 17:02,505
6/11/19 17:02,502
6/11/19 17:02,505
6/11/19 17:02,504
6/11/19 17:02,503
6/11/19 17:02,505
6/11/19 17:02,504
6/11/19 17:02,504
6/11/19 17:02,502
6/11/19 17:02,503
6/11/19 17:02,502
6/11/19 17:02,504
6/11/19 17:02,504
6/11/19 17:02,499
6/11/19 17:02,504
6/11/19 17:02,506
6/11/19 17:02,504
6/11/19 17:02,506
6/11/19 17:02,504
6/11/19 17:02,502
6/11/19 17:02,505
6/11/19 17:02,504
6/11/19 17:02,504
6/11/19 17:02,502
6/11/19 17:02,503
6/11/19 17:02,503
6/11/19 17:02,503
6/11/19 17:02,505
6/11/19 17:02,500
6/11/19 17:02,500
6/11/19 17:02,505
6/11/19 17:02,505
6/11/19 17:02,503
6/11/19 17:02,504
6/11/19 17:02,503
6/11/19 17:02,506
6/11/19 17:02,505
6/11/19 17:02,505
6/11/19 17:02,501
6/11/19 17:02,517
6/11/19 17:02,530
6/11/19 17:02,479
6/11/19 17:02,490
6/11/19 17:02,496
6/11/19 17:02,502
6/11/19 17:02,502
6/11/19 17:02,503
6/11/19 17:02,503
6/11/19 17:02,503
6/11/19 17:02,502
6/11/19 17:02,503
6/11/19 17:02,503
6/11/19 17:02,503
6/11/19 17:02,500
6/11/19 17:02,503
6/11/19 17:02,505
6/11/19 17:02,505
6/11/19 17:02,505
6/11/19 17:02,505
6/11/19 17:02,505
6/11/19 17:02,504
6/11/19 17:02,502
6/11/19 17:02,505
6/11/19 17:02,505
6/11/19 17:02,504
6/11/19 17:02,503
6/11/19 17:02,505
6/11/19 17:02,505
6/11/19 17:02,505
6/11/19 17:02,503
6/11/19 17:02,503
6/11/19 17:02,504
6/11/19 17:02,505
6/11/19 17:02,504
6/11/19 17:02,505
6/11/19 17:02,504
6/11/19 17:02,503
6/11/19 17:02,504
6/11/19 17:02,499
6/11/19 17:02,504
6/11/19 17:02,504
6/11/19 17:02,503
6/11/19 17:02,506
6/11/19 17:02,505
6/11/19 17:02,506
6/11/19 17:02,502
6/11/19 17:02,502
6/11/19 17:02,503
6/11/19 17:02,501
6/11/19 17:02,503
6/11/19 17:02,503
6/11/19 17:02,505
6/11/19 17:02,503
6/11/19 17:02,502
6/11/19 17:02,502
6/11/19 17:02,503
6/11/19 17:02,502
6/11/19 17:02,502
6/11/19 17:02,505
6/11/19 17:02,504
6/11/19 17:02,505
6/11/19 17:02,504
6/11/19 17:02,503
6/11/19 17:02,502
6/11/19 17:02,503
6/11/19 17:02,503
6/11/19 17:02,538
6/11/19 17:02,502
6/11/19 17:02,483
6/11/19 17:02,491
6/11/19 17:02,496
6/11/19 17:02,498
6/11/19 17:02,502
6/11/19 17:02,501
6/11/19 17:02,504
6/11/19 17:02,504
6/11/19 17:02,505
6/11/19 17:02,506
6/11/19 17:02,504
6/11/19 17:02,504
6/11/19 17:02,505
6/11/19 17:02,506
6/11/19 17:02,504
6/11/19 17:02,503
6/11/19 17:02,503
6/11/19 17:02,498
6/11/19 17:02,503
6/11/19 17:02,503
6/11/19 17:02,500
6/11/19 17:02,505
6/11/19 17:02,505
6/11/19 17:02,504
6/11/19 17:02,507
6/11/19 17:02,503
6/11/19 17:02,505
6/11/19 17:02,505
6/11/19 17:02,503
6/11/19 17:02,505
6/11/19 17:02,503
6/11/19 17:02,505
6/11/19 17:02,504
6/11/19 17:02,505
6/11/19 17:02,503
6/11/19 17:02,501
6/11/19 17:02,504
6/11/19 17:02,501
6/11/19 17:02,503
6/11/19 17:02,505
6/11/19 17:02,504
6/11/19 17:02,506
6/11/19 17:02,503
6/11/19 17:02,504
6/11/19 17:02,503
6/11/19 17:02,503
6/11/19 17:02,504
6/11/19 17:02,502
6/11/19 17:02,503
6/11/19 17:02,503
6/11/19 17:02,504
6/11/19 17:02,502
6/11/19 17:02,503
6/11/19 17:02,503
6/11/19 17:02,504
6/11/19 17:02,502
6/11/19 17:02,503
6/11/19 17:02,500
6/11/19 17:02,502
6/11/19 17:02,504
6/11/19 17:02,505
6/11/19 17:02,505
6/11/19 17:02,524
6/11/19 17:02,523
6/11/19 17:02,482
6/11/19 17:02,488
6/11/19 17:02,497
6/11/19 17:02,500
6/11/19 17:02,503
6/11/19 17:02,505
6/11/19 17:02,504
6/11/19 17:02,503
6/11/19 17:02,503
6/11/19 17:02,502
6/11/19 17:02,505
6/11/19 17:02,506
6/11/19 17:02,503
6/11/19 17:02,503
6/11/19 17:02,505
6/11/19 17:02,503
6/11/19 17:02,502
6/11/19 17:02,503
6/11/19 17:02,511
6/11/19 17:02,501
6/11/19 17:02,498
6/11/19 17:02,496
6/11/19 17:02,503
6/11/19 17:11,504
6/11/19 17:11,505
6/11/19 17:11,509
6/11/19 17:11,532
6/11/19 17:11,479
6/11/19 17:11,489
6/11/19 17:11,490
6/11/19 17:11,497
6/11/19 17:11,504
6/11/19 17:11,503
6/11/19 17:11,503
6/11/19 17:11,504
6/11/19 17:11,503
6/11/19 17:11,506
6/11/19 17:11,503
6/11/19 17:11,502
6/11/19 17:11,498
6/11/19 17:11,501
6/11/19 17:11,506
6/11/19 17:11,505
6/11/19 17:11,506
6/11/19 17:11,505
6/11/19 17:11,505
6/11/19 17:11,507
6/11/19 17:11,504
6/11/19 17:11,504
6/11/19 17:11,504
6/11/19 17:11,505
6/11/19 17:11,504
6/11/19 17:11,505
6/11/19 17:11,504
6/11/19 17:11,504
6/11/19 17:11,505
6/11/19 17:11,505
6/11/19 17:11,503
6/11/19 17:11,504
6/11/19 17:11,502
6/11/19 17:11,503
6/11/19 17:11,505
6/11/19 17:11,506
6/11/19 17:11,501
6/11/19 17:11,504
6/11/19 17:11,504
6/11/19 17:11,505
6/11/19 17:11,504
6/11/19 17:11,505
6/11/19 17:11,504
6/11/19 17:11,503
6/11/19 17:11,505
6/11/19 17:11,502
6/11/19 17:11,503
6/11/19 17:11,503
6/11/19 17:11,501
6/11/19 17:11,503
6/11/19 17:11,503
6/11/19 17:11,500
6/11/19 17:11,503
6/11/19 17:11,503
6/11/19 17:11,504
6/11/19 17:11,502
6/11/19 17:11,503
6/11/19 17:11,503
6/11/19 17:11,505
6/11/19 17:11,504
6/11/19 17:11,504
6/11/19 17:11,504
6/11/19 17:11,504
6/11/19 17:11,504
6/11/19 17:11,505
6/11/19 17:11,502
6/11/19 17:11,511
6/11/19 17:11,531
6/11/19 17:11,479
6/11/19 17:11,486
6/11/19 17:11,487
6/11/19 17:11,502
6/11/19 17:11,505
6/11/19 17:11,503
6/11/19 17:11,505
6/11/19 17:11,506
6/11/19 17:11,507
6/11/19 17:11,505
6/11/19 17:11,503
6/11/19 17:11,505
6/11/19 17:11,503
6/11/19 17:11,505
6/11/19 17:11,502
6/11/19 17:11,503
6/11/19 17:11,503
6/11/19 17:11,503
6/11/19 17:11,505
6/11/19 17:11,503
6/11/19 17:11,504
6/11/19 17:11,505
6/11/19 17:11,503
6/11/19 17:11,504
6/11/19 17:11,505
6/11/19 17:11,502
6/11/19 17:11,504
6/11/19 17:11,504
6/11/19 17:11,506
6/11/19 17:11,504
6/11/19 17:11,505
6/11/19 17:11,506
6/11/19 17:11,505
6/11/19 17:11,504
6/11/19 17:11,504
6/11/19 17:11,503
6/11/19 17:11,506
6/11/19 17:11,503
6/11/19 17:11,505
6/11/19 17:11,502
6/11/19 17:11,505
6/11/19 17:11,504
6/11/19 17:11,502
6/11/19 17:11,502
6/11/19 17:11,503
6/11/19 17:11,502
6/11/19 17:11,502
6/11/19 17:11,502
6/11/19 17:11,503
6/11/19 17:11,501
6/11/19 17:11,501
6/11/19 17:11,504
6/11/19 17:11,504
6/11/19 17:11,506
6/11/19 17:11,505
6/11/19 17:11,504
6/11/19 17:11,503
6/11/19 17:11,503
6/11/19 17:11,503
6/11/19 17:11,509
6/11/19 17:11,495
6/11/19 17:11,498
6/11/19 17:11,501
6/11/19 17:11,503
6/11/19 17:11,539
6/11/19 17:11,503
6/11/19 17:11,485
6/11/19 17:11,487
6/11/19 17:11,499
6/11/19 17:11,500
6/11/19 17:11,504
6/11/19 17:11,504
6/11/19 17:11,503
6/11/19 17:11,503
6/11/19 17:11,505
6/11/19 17:11,500
6/11/19 17:11,504
6/11/19 17:11,506
6/11/19 17:11,506
6/11/19 17:11,503
6/11/19 17:11,505
6/11/19 17:11,504
6/11/19 17:11,501
6/11/19 17:11,504
6/11/19 17:11,515
6/11/19 17:11,504
6/11/19 17:11,503
6/11/19 17:11,501
6/11/19 17:11,503
6/11/19 17:11,503
6/11/19 17:11,504
6/11/19 17:11,506
6/11/19 17:11,503
6/11/19 17:11,505
6/11/19 17:11,504
6/11/19 17:11,504
6/11/19 17:11,505
6/11/19 17:11,505
6/11/19 17:11,504
6/11/19 17:11,504
6/11/19 17:11,503
6/11/19 17:11,503
6/11/19 17:11,503
6/11/19 17:11,504
6/11/19 17:11,503
6/11/19 17:11,503
6/11/19 17:11,501
6/11/19 17:11,502
6/11/19 17:11,501
6/11/19 17:11,505
6/11/19 17:11,506
6/11/19 17:11,505
6/11/19 17:11,504
6/11/19 17:11,505
6/11/19 17:11,503
6/11/19 17:11,505
6/11/19 17:11,504
6/11/19 17:11,501
6/11/19 17:11,503
6/11/19 17:11,502
6/11/19 17:11,504
6/11/19 17:11,502
6/11/19 17:11,502
6/11/19 17:11,504
6/11/19 17:11,503
6/11/19 17:11,503
6/11/19 17:11,499
6/11/19 17:11,503
6/11/19 17:11,503
6/11/19 17:11,504
6/11/19 17:11,504
6/11/19 17:11,505
6/11/19 17:11,502
6/11/19 17:11,505
6/11/19 17:11,529
6/11/19 17:11,517
6/11/19 17:11,482
6/11/19 17:11,490
6/11/19 17:11,497
6/11/19 17:11,501
6/11/19 17:11,501
6/11/19 17:11,504
6/11/19 17:11,503
6/11/19 17:11,504
6/11/19 17:11,504
6/11/19 17:11,503
6/11/19 17:11,504
6/11/19 17:11,502
6/11/19 17:11,504
6/11/19 17:11,499
6/11/19 17:11,503
6/11/19 17:11,505
6/11/19 17:11,504
6/11/19 17:11,507
6/11/19 17:11,505
6/11/19 17:11,505
6/11/19 17:11,506
6/11/19 17:11,506
6/11/19 17:11,506
6/11/19 17:11,504
6/11/19 17:11,504
6/11/19 17:11,503
6/11/19 17:11,503
6/11/19 17:11,504
6/11/19 17:11,503
6/11/19 17:11,504
6/11/19 17:11,502
6/11/19 17:11,502
6/11/19 17:11,507
6/11/19 17:11,504
6/11/19 17:11,505
6/11/19 17:11,505
6/11/19 17:11,505
6/11/19 17:11,504
6/11/19 17:11,502
6/11/19 17:11,505
6/11/19 17:11,502
6/11/19 17:11,504
6/11/19 17:11,502
6/11/19 17:11,499
6/11/19 17:11,501
6/11/19 17:11,504
6/11/19 17:11,504
6/11/19 17:11,504
6/11/19 17:11,505
6/11/19 17:11,504
6/11/19 17:11,503
6/11/19 17:11,503
6/11/19 17:11,504
6/11/19 17:11,503
6/11/19 17:11,504
6/11/19 17:11,503
6/11/19 17:11,504
6/11/19 17:11,504
6/11/19 17:11,502
6/11/19 17:11,504
6/11/19 17:11,502
6/11/19 17:11,502
6/11/19 17:11,502
6/11/19 17:11,503
6/11/19 17:11,500
6/11/19 17:11,539
6/11/19 17:11,496
6/11/19 17:11,487
6/11/19 17:11,490
6/11/19 17:11,499
6/11/19 17:11,501
6/11/19 17:11,503
6/11/19 17:11,505
6/11/19 17:11,503
6/11/19 17:11,502
6/11/19 17:11,505
6/11/19 17:11,504
6/11/19 17:11,504
6/11/19 17:11,503
6/11/19 17:11,504
6/11/19 17:11,502
6/11/19 17:11,504
6/11/19 17:11,502
6/11/19 17:11,503
6/11/19 17:11,503
6/11/19 17:11,501
6/11/19 17:11,505
6/11/19 17:11,505
6/11/19 17:11,504
6/11/19 17:11,508
6/11/19 17:11,505
6/11/19 17:11,504
6/11/19 17:11,504
6/11/19 17:11,504
6/11/19 17:11,505
6/11/19 17:11,504
6/11/19 17:11,505
6/11/19 17:11,504
6/11/19 17:11,504
6/11/19 17:11,503
6/11/19 17:11,504
6/11/19 17:11,505
6/11/19 17:11,503
6/11/19 17:11,502
6/11/19 17:11,504
6/11/19 17:11,504
6/11/19 17:11,504
6/11/19 17:11,505
6/11/19 17:11,504
6/11/19 17:11,505
6/11/19 17:11,503
6/11/19 17:11,504
6/11/19 17:11,502
6/11/19 17:11,502
6/11/19 17:11,504
6/11/19 17:11,504
6/11/19 17:11,503
6/11/19 17:11,502
6/11/19 17:11,503
6/11/19 17:11,502
6/11/19 17:11,503
6/11/19 17:11,502
6/11/19 17:11,502
6/11/19 17:11,502
6/11/19 17:11,498
6/11/19 17:11,502
6/11/19 17:11,505
6/11/19 17:11,505
6/11/19 17:11,504
6/11/19 17:11,506
6/11/19 17:11,502
6/11/19 17:11,535
6/11/19 17:11,514
6/11/19 17:11,481
6/11/19 17:11,486
6/11/19 17:11,496
6/11/19 17:11,502
6/11/19 17:11,505
6/11/19 17:11,504
6/11/19 17:11,505
6/11/19 17:11,505
6/11/19 17:11,506
6/11/19 17:11,504
6/11/19 17:11,504
6/11/19 17:11,512
6/11/19 17:11,496
6/11/19 17:11,503
6/11/19 17:11,519
6/11/19 17:11,499
6/11/19 17:11,497
6/11/19 17:11,499
6/11/19 17:11,503
6/11/19 17:11,502
6/11/19 17:11,506
6/11/19 17:11,505
6/11/19 17:11,504
6/11/19 17:11,505
6/11/19 17:11,505
6/11/19 17:11,505
6/11/19 17:11,503
6/11/19 17:11,503
6/11/19 17:11,506
6/11/19 17:11,504
6/11/19 17:11,504
6/11/19 17:11,505
6/11/19 17:11,503
6/11/19 17:11,504
6/11/19 17:11,503
6/11/19 17:11,504
6/11/19 17:11,505
6/11/19 17:11,503
6/11/19 17:11,505
6/11/19 17:11,502
6/11/19 17:11,503
6/11/19 17:11,500
6/11/19 17:11,504
6/11/19 17:11,505
6/11/19 17:11,503
6/11/19 17:11,503
6/11/19 17:11,501
6/11/19 17:11,504
6/11/19 17:11,503
6/11/19 17:11,503
6/11/19 17:11,504
6/11/19 17:11,504
6/11/19 17:11,503
6/11/19 17:11,503
6/11/19 17:11,502
6/11/19 17:11,504
6/11/19 17:11,505
6/11/19 17:11,504
6/11/19 17:11,504
6/11/19 17:11,504
6/11/19 17:11,499
6/11/19 17:11,502
6/11/19 17:11,502
6/11/19 17:11,505
6/11/19 17:11,505
6/11/19 17:11,500
6/11/19 17:11,506
6/11/19 17:11,534
6/11/19 17:11,485
6/11/19 17:11,487
6/11/19 17:11,496
6/11/19 17:11,498
6/11/19 17:11,501
6/11/19 17:11,503
6/11/19 17:11,505
6/11/19 17:11,507
6/11/19 17:11,507
6/11/19 17:11,505
6/11/19 17:11,506
6/11/19 17:11,502
6/11/19 17:11,500
6/11/19 17:11,503
6/11/19 17:11,503
6/11/19 17:11,505
6/11/19 17:11,499
6/11/19 17:11,507
6/11/19 17:11,504
6/11/19 17:11,504
6/11/19 17:11,507
6/11/19 17:11,504
6/11/19 17:11,505
6/11/19 17:11,505
6/11/19 17:11,506
6/11/19 17:11,505
6/11/19 17:11,502
6/11/19 17:11,504
6/11/19 17:11,505
6/11/19 17:11,504
6/11/19 17:11,504
6/11/19 17:11,503
6/11/19 17:11,504
6/11/19 17:11,502
6/11/19 17:11,503
6/11/19 17:11,502
6/11/19 17:11,503
6/11/19 17:11,506
6/11/19 17:11,505
6/11/19 17:11,504
6/11/19 17:11,504
6/11/19 17:11,502
6/11/19 17:11,505
6/11/19 17:11,500
6/11/19 17:11,503
6/11/19 17:11,506
6/11/19 17:11,504
6/11/19 17:11,502
6/11/19 17:11,506
6/11/19 17:11,503
6/11/19 17:11,504
6/11/19 17:11,504
6/11/19 17:11,503
6/11/19 17:11,504
6/11/19 17:11,503
6/11/19 17:11,502
6/11/19 17:11,502
6/11/19 17:11,500
6/11/19 17:11,502
6/11/19 17:11,502
6/11/19 17:11,503
6/11/19 17:11,500
6/11/19 17:11,504
6/11/19 17:11,506
6/11/19 17:11,541
6/11/19 17:11,511
6/11/19 17:11,480
6/11/19 17:11,492
6/11/19 17:11,488
6/11/19 17:11,497
6/11/19 17:11,502
6/11/19 17:11,503
6/11/19 17:11,506
6/11/19 17:11,505
6/11/19 17:11,505
6/11/19 17:11,506
6/11/19 17:11,504
6/11/19 17:11,504
6/11/19 17:11,504
6/11/19 17:11,503
6/11/19 17:11,506
6/11/19 17:11,504
6/11/19 17:11,500
6/11/19 17:11,500
6/11/19 17:11,506
6/11/19 17:11,504
6/11/19 17:11,505
6/11/19 17:11,506
6/11/19 17:11,503
6/11/19 17:11,506
6/11/19 17:11,506
6/11/19 17:11,502
6/11/19 17:11,505
6/11/19 17:11,503
6/11/19 17:11,503
6/11/19 17:11,506
6/11/19 17:11,505
6/11/19 17:11,505
6/11/19 17:11,504
6/11/19 17:11,503
6/11/19 17:11,503
6/11/19 17:11,503
6/11/19 17:11,502
6/11/19 17:11,502
6/11/19 17:11,504
6/11/19 17:11,504
6/11/19 17:11,502
6/11/19 17:11,503
6/11/19 17:11,503
6/11/19 17:11,503
6/11/19 17:11,504
6/11/19 17:11,500
6/11/19 17:11,501
6/11/19 17:11,505
6/11/19 17:11,506
6/11/19 17:11,504
6/11/19 17:11,503
6/11/19 17:11,505
6/11/19 17:11,504
6/11/19 17:11,505
6/11/19 17:11,503
6/11/19 17:11,502
6/11/19 17:11,503
6/11/19 17:11,504
6/11/19 17:11,502
6/11/19 17:11,503
6/11/19 17:11,503
6/11/19 17:11,501
6/11/19 17:11,503
6/11/19 17:11,502
6/11/19 17:11,502
6/11/19 17:11,542
6/11/19 17:11,498
6/11/19 17:11,484
6/11/19 17:11,489
6/11/19 17:11,497
6/11/19 17:11,502
6/11/19 17:11,504
6/11/19 17:11,503
6/11/19 17:11,501
6/11/19 17:11,506
6/11/19 17:11,504
6/11/19 17:11,504
6/11/19 17:11,504
6/11/19 17:11,505
6/11/19 17:11,502
6/11/19 17:11,504
6/11/19 17:11,504
6/11/19 17:11,504
6/11/19 17:11,504
6/11/19 17:11,504
6/11/19 17:11,505
6/11/19 17:11,501
6/11/19 17:11,506
6/11/19 17:11,505
6/11/19 17:11,504
6/11/19 17:11,503
6/11/19 17:11,505
6/11/19 17:11,505
6/11/19 17:11,505
6/11/19 17:11,505
6/11/19 17:11,504
6/11/19 17:11,506
6/11/19 17:11,504
6/11/19 17:11,504
6/11/19 17:11,503
6/11/19 17:11,503
6/11/19 17:11,503
6/11/19 17:11,503
6/11/19 17:11,498
6/11/19 17:11,517
6/11/19 17:11,499
6/11/19 17:11,502
6/11/19 17:11,500
6/11/19 17:11,504
6/11/19 17:11,503
6/11/19 17:11,503
6/11/19 17:11,504
6/11/19 17:11,502
6/11/19 17:11,503
6/11/19 17:11,502
6/11/19 17:11,503
6/11/19 17:11,503
6/11/19 17:11,500
6/11/19 17:11,503
6/11/19 17:11,506
6/11/19 17:11,505
6/11/19 17:11,505
6/11/19 17:11,503
6/11/19 17:11,504
6/11/19 17:11,503
6/11/19 17:20,503
6/11/19 17:20,503
6/11/19 17:20,504
6/11/19 17:20,503
6/11/19 17:20,502
6/11/19 17:20,501
6/11/19 17:20,503
6/11/19 17:20,503
6/11/19 17:20,502
6/11/19 17:20,504
6/11/19 17:20,504
6/11/19 17:20,502
6/11/19 17:20,504
6/11/19 17:20,504
6/11/19 17:20,504
6/11/19 17:20,503
6/11/19 17:20,504
6/11/19 17:20,504
6/11/19 17:20,503
6/11/19 17:20,502
6/11/19 17:20,502
6/11/19 17:20,504
6/11/19 17:20,503
6/11/19 17:20,502
6/11/19 17:20,504
6/11/19 17:20,502
6/11/19 17:20,497
6/11/19 17:20,504
6/11/19 17:20,505
6/11/19 17:20,505
6/11/19 17:20,503
6/11/19 17:20,504
6/11/19 17:20,503
6/11/19 17:20,504
6/11/19 17:20,503
6/11/19 17:20,503
6/11/19 17:20,504
6/11/19 17:20,503
6/11/19 17:20,504
6/11/19 17:20,503
6/11/19 17:20,502
6/11/19 17:20,502
6/11/19 17:20,497
6/11/19 17:20,502
6/11/19 17:20,506
6/11/19 17:20,505
6/11/19 17:20,504
6/11/19 17:20,505
6/11/19 17:20,504
6/11/19 17:20,505
6/11/19 17:20,505
6/11/19 17:20,502
6/11/19 17:20,502
6/11/19 17:20,502
6/11/19 17:20,502
6/11/19 17:20,503
6/11/19 17:20,502
6/11/19 17:20,504
6/11/19 17:20,504
6/11/19 17:20,504
6/11/19 17:20,503
6/11/19 17:20,513
6/11/19 17:20,502
6/11/19 17:20,501
6/11/19 17:20,502
6/11/19 17:20,503
6/11/19 17:20,504
6/11/19 17:20,505
6/11/19 17:20,504
6/11/19 17:20,504
6/11/19 17:20,502
6/11/19 17:20,506
6/11/19 17:20,538
6/11/19 17:20,475
6/11/19 17:20,484
6/11/19 17:20,498
6/11/19 17:20,503
6/11/19 17:20,503
6/11/19 17:20,504
6/11/19 17:20,504
6/11/19 17:20,501
6/11/19 17:20,505
6/11/19 17:20,504
6/11/19 17:20,505
6/11/19 17:20,505
6/11/19 17:20,504
6/11/19 17:20,507
6/11/19 17:20,503
6/11/19 17:20,506
6/11/19 17:20,504
6/11/19 17:20,505
6/11/19 17:20,505
6/11/19 17:20,506
6/11/19 17:20,505
6/11/19 17:20,504
6/11/19 17:20,502
6/11/19 17:20,506
6/11/19 17:20,504
6/11/19 17:20,504
6/11/19 17:20,505
6/11/19 17:20,503
6/11/19 17:20,504
6/11/19 17:20,503
6/11/19 17:20,505
6/11/19 17:20,506
6/11/19 17:20,503
6/11/19 17:20,503
6/11/19 17:20,502
6/11/19 17:20,498
6/11/19 17:20,504
6/11/19 17:20,505
6/11/19 17:20,505
6/11/19 17:20,504
6/11/19 17:20,505
6/11/19 17:20,504
6/11/19 17:20,505
6/11/19 17:20,504
6/11/19 17:20,502
6/11/19 17:20,504
6/11/19 17:20,502
6/11/19 17:20,503
6/11/19 17:20,502
6/11/19 17:20,502
6/11/19 17:20,505
6/11/19 17:20,505
6/11/19 17:20,502
6/11/19 17:20,503
6/11/19 17:20,503
6/11/19 17:20,504
6/11/19 17:20,502
6/11/19 17:20,503
6/11/19 17:20,501
6/11/19 17:20,502
6/11/19 17:20,505
6/11/19 17:20,504
6/11/19 17:20,509
6/11/19 17:20,508
6/11/19 17:20,498
6/11/19 17:20,499
6/11/19 17:20,500
6/11/19 17:20,501
6/11/19 17:20,502
6/11/19 17:20,501
6/11/19 17:20,501
6/11/19 17:20,501
6/11/19 17:20,505
6/11/19 17:20,506
6/11/19 17:20,504
6/11/19 17:20,505
6/11/19 17:20,505
6/11/19 17:20,505
6/11/19 17:20,504
6/11/19 17:20,503
6/11/19 17:20,504
6/11/19 17:20,502
6/11/19 17:20,503
6/11/19 17:20,505
6/11/19 17:20,504
6/11/19 17:20,504
6/11/19 17:20,505
6/11/19 17:20,498
6/11/19 17:20,504
6/11/19 17:20,504
6/11/19 17:20,503
6/11/19 17:20,504
6/11/19 17:20,503
6/11/19 17:20,505
6/11/19 17:20,502
6/11/19 17:20,505
6/11/19 17:20,503
6/11/19 17:20,503
6/11/19 17:20,503
6/11/19 17:20,502
6/11/19 17:20,503
6/11/19 17:20,503
6/11/19 17:20,504
6/11/19 17:20,505
6/11/19 17:20,503
6/11/19 17:20,503
6/11/19 17:20,499
6/11/19 17:20,505
6/11/19 17:20,506
6/11/19 17:20,505
6/11/19 17:20,505
6/11/19 17:20,502
6/11/19 17:20,504
6/11/19 17:20,505
6/11/19 17:20,504
6/11/19 17:20,502
6/11/19 17:20,505
6/11/19 17:20,503
6/11/19 17:20,503
6/11/19 17:20,501
6/11/19 17:20,503
6/11/19 17:20,503
6/11/19 17:20,504
6/11/19 17:20,504
6/11/19 17:20,503
6/11/19 17:20,504
6/11/19 17:20,503
6/11/19 17:20,502
6/11/19 17:20,502
6/11/19 17:20,500
6/11/19 17:20,505
6/11/19 17:20,504
6/11/19 17:20,505
6/11/19 17:20,504
6/11/19 17:20,504
6/11/19 17:20,506
6/11/19 17:20,503
6/11/19 17:20,503
6/11/19 17:20,506
6/11/19 17:20,504
6/11/19 17:20,504
6/11/19 17:20,503
6/11/19 17:20,504
6/11/19 17:20,503
6/11/19 17:20,504
6/11/19 17:20,504
6/11/19 17:20,502
6/11/19 17:20,504
6/11/19 17:20,503
6/11/19 17:20,500
6/11/19 17:20,498
6/11/19 17:20,505
6/11/19 17:20,505
6/11/19 17:20,505
6/11/19 17:20,506
6/11/19 17:20,504
6/11/19 17:20,504
6/11/19 17:20,505
6/11/19 17:20,503
6/11/19 17:20,503
6/11/19 17:20,502
6/11/19 17:20,503
6/11/19 17:20,504
6/11/19 17:20,504
6/11/19 17:20,504
6/11/19 17:20,504
6/11/19 17:20,503
6/11/19 17:20,504
6/11/19 17:20,504
6/11/19 17:20,495
6/11/19 17:20,502
6/11/19 17:20,504
6/11/19 17:20,505
6/11/19 17:20,504
6/11/19 17:20,503
6/11/19 17:20,504
6/11/19 17:20,503
6/11/19 17:20,503
6/11/19 17:20,504
6/11/19 17:20,502
6/11/19 17:20,504
6/11/19 17:20,502
6/11/19 17:20,504
6/11/19 17:20,503
6/11/19 17:20,504
6/11/19 17:20,503
6/11/19 17:20,501
6/11/19 17:20,504
6/11/19 17:20,503
6/11/19 17:20,506
6/11/19 17:20,506
6/11/19 17:20,504
6/11/19 17:20,503
6/11/19 17:20,504
6/11/19 17:20,505
6/11/19 17:20,503
6/11/19 17:20,503
6/11/19 17:20,504
6/11/19 17:20,504
6/11/19 17:20,502
6/11/19 17:20,501
6/11/19 17:20,505
6/11/19 17:20,504
6/11/19 17:20,505
6/11/19 17:20,503
6/11/19 17:20,504
6/11/19 17:20,504
6/11/19 17:20,504
6/11/19 17:20,502
6/11/19 17:20,503
6/11/19 17:20,505
6/11/19 17:20,505
6/11/19 17:20,504
6/11/19 17:20,503
6/11/19 17:20,503
6/11/19 17:20,503
6/11/19 17:20,503
6/11/19 17:20,503
6/11/19 17:20,502
6/11/19 17:20,503
6/11/19 17:20,504
6/11/19 17:20,499
6/11/19 17:20,504
6/11/19 17:20,503
6/11/19 17:20,504
6/11/19 17:20,504
6/11/19 17:20,502
6/11/19 17:20,503
6/11/19 17:20,503
6/11/19 17:20,504
6/11/19 17:20,504
6/11/19 17:20,503
6/11/19 17:20,503
6/11/19 17:20,504
6/11/19 17:20,504
6/11/19 17:20,504
6/11/19 17:20,503
6/11/19 17:20,504
6/11/19 17:20,500
6/11/19 17:20,501
6/11/19 17:20,505
6/11/19 17:20,504
6/11/19 17:20,504
6/11/19 17:20,503
6/11/19 17:20,504
6/11/19 17:20,503
6/11/19 17:20,502
6/11/19 17:20,502
6/11/19 17:20,500
6/11/19 17:20,504
6/11/19 17:20,502
6/11/19 17:20,503
6/11/19 17:20,504
6/11/19 17:20,503
6/11/19 17:20,504
6/11/19 17:20,505
6/11/19 17:20,504
6/11/19 17:20,504
6/11/19 17:20,503
6/11/19 17:20,504
6/11/19 17:20,503
6/11/19 17:20,504
6/11/19 17:20,505
6/11/19 17:20,504
6/11/19 17:20,503
6/11/19 17:20,501
6/11/19 17:20,503
6/11/19 17:20,505
6/11/19 17:20,499
6/11/19 17:20,506
6/11/19 17:20,504
6/11/19 17:20,504
6/11/19 17:20,503
6/11/19 17:20,503
6/11/19 17:20,503
6/11/19 17:20,503
6/11/19 17:20,506
6/11/19 17:20,503
6/11/19 17:20,500
6/11/19 17:20,504
6/11/19 17:20,504
6/11/19 17:20,504
6/11/19 17:20,503
6/11/19 17:20,502
6/11/19 17:20,503
6/11/19 17:20,504
6/11/19 17:20,500
6/11/19 17:20,503
6/11/19 17:20,502
6/11/19 17:20,503
6/11/19 17:20,504
6/11/19 17:20,503
6/11/19 17:20,506
6/11/19 17:20,505
6/11/19 17:20,505
6/11/19 17:20,505
6/11/19 17:20,503
6/11/19 17:20,503
6/11/19 17:20,502
6/11/19 17:20,504
6/11/19 17:20,504
6/11/19 17:20,504
6/11/19 17:20,504
6/11/19 17:20,501
6/11/19 17:20,502
6/11/19 17:20,503
6/11/19 17:20,503
6/11/19 17:20,503
6/11/19 17:20,501
6/11/19 17:20,504
6/11/19 17:20,505
6/11/19 17:20,504
6/11/19 17:20,504
6/11/19 17:20,503
6/11/19 17:20,504
6/11/19 17:20,503
6/11/19 17:20,502
6/11/19 17:20,504
6/11/19 17:20,504
6/11/19 17:20,503
6/11/19 17:20,504
6/11/19 17:20,503
6/11/19 17:20,504
6/11/19 17:20,502
6/11/19 17:20,503
6/11/19 17:20,501
6/11/19 17:20,503
6/11/19 17:20,504
6/11/19 17:20,501
6/11/19 17:20,504
6/11/19 17:20,506
6/11/19 17:20,503
6/11/19 17:20,505
6/11/19 17:20,503
6/11/19 17:20,504
6/11/19 17:20,504
6/11/19 17:20,503
6/11/19 17:20,503
6/11/19 17:20,504
6/11/19 17:20,505
6/11/19 17:20,502
6/11/19 17:20,500
6/11/19 17:20,501
6/11/19 17:20,503
6/11/19 17:20,506
6/11/19 17:20,504
6/11/19 17:20,503
6/11/19 17:20,505
6/11/19 17:20,503
6/11/19 17:20,504
6/11/19 17:20,502
6/11/19 17:20,503
6/11/19 17:20,503
6/11/19 17:20,502
6/11/19 17:20,504
6/11/19 17:20,503
6/11/19 17:20,502
6/11/19 17:20,501
6/11/19 17:20,503
6/11/19 17:20,503
6/11/19 17:20,505
6/11/19 17:20,507
6/11/19 17:20,505
6/11/19 17:20,503
6/11/19 17:20,505
6/11/19 17:20,504
6/11/19 17:20,504
6/11/19 17:20,505
6/11/19 17:20,504
6/11/19 17:20,505
6/11/19 17:20,502
6/11/19 17:20,504
6/11/19 17:20,505
6/11/19 17:20,503
6/11/19 17:20,505
6/11/19 17:20,501
6/11/19 17:20,503
6/11/19 17:20,504
6/11/19 17:20,501
6/11/19 17:20,503
6/11/19 17:20,501
6/11/19 17:20,498
6/11/19 17:20,505
6/11/19 17:20,503
6/11/19 17:20,504
6/11/19 17:20,505
6/11/19 17:20,506
6/11/19 17:20,505
6/11/19 17:20,504
6/11/19 17:20,505
6/11/19 17:20,503
6/11/19 17:20,503
6/11/19 17:20,503
6/11/19 17:20,503
6/11/19 17:20,503
6/11/19 17:20,503
6/11/19 17:20,503
6/11/19 17:20,504
6/11/19 17:20,502
6/11/19 17:20,504
6/11/19 17:20,502
6/11/19 17:20,503
6/11/19 17:20,501
6/11/19 17:20,503
6/11/19 17:20,505
6/11/19 17:20,503
6/11/19 17:20,513
6/11/19 17:20,503
6/11/19 17:20,501
6/11/19 17:20,499
6/11/19 17:20,501
6/11/19 17:20,503
6/11/19 17:20,503
6/11/19 17:20,504
6/11/19 17:20,505
6/11/19 17:20,505
6/11/19 17:20,504
6/11/19 17:20,504
6/11/19 17:20,502
6/11/19 17:20,505
6/11/19 17:20,503
6/11/19 17:20,505
6/11/19 17:20,504
6/11/19 17:20,501
6/11/19 17:20,504
6/11/19 17:20,502
6/11/19 17:20,504
6/11/19 17:20,505
6/11/19 17:20,502
6/11/19 17:20,504
6/11/19 17:20,503
6/11/19 17:20,504
6/11/19 17:20,504
6/11/19 17:20,503
6/11/19 17:20,503
6/11/19 17:20,503
6/11/19 17:20,504
6/11/19 17:20,505
6/11/19 17:20,547
6/11/19 17:20,463
6/11/19 17:20,485
6/11/19 17:20,498
6/11/19 17:20,501
6/11/19 17:20,504
6/11/19 17:20,502
6/11/19 17:20,504
6/11/19 17:20,504
6/11/19 17:20,499
6/11/19 17:20,504
6/11/19 17:20,505
6/11/19 17:20,505
6/11/19 17:20,505
6/11/19 17:20,504
6/11/19 17:20,503
6/11/19 17:20,504
6/11/19 17:20,504
6/11/19 17:20,506
6/11/19 17:20,505
6/11/19 17:20,505
6/11/19 17:20,504
6/11/19 17:20,503
6/11/19 17:20,506
6/11/19 17:20,503
6/11/19 17:20,504
6/11/19 17:20,504
6/11/19 17:20,502
6/11/19 17:20,507
6/11/19 17:20,504
6/11/19 17:20,504
6/11/19 17:20,500
6/11/19 17:20,503
6/11/19 17:20,504
6/11/19 17:20,504
6/11/19 17:20,504
6/11/19 17:20,504
6/11/19 17:20,503
6/11/19 17:20,504
6/11/19 17:20,504
6/11/19 17:20,503
6/11/19 17:20,502
6/11/19 17:20,503
6/11/19 17:20,504
6/11/19 17:20,503
6/11/19 17:20,502
6/11/19 17:20,503
6/11/19 17:20,502
6/11/19 17:20,501
6/11/19 17:20,502
6/11/19 17:20,504
6/11/19 17:20,499
6/11/19 17:20,503
6/11/19 17:20,503
6/11/19 17:20,504
6/11/19 17:20,504
6/11/19 17:20,503
6/11/19 17:20,503
6/11/19 17:20,504
6/11/19 17:20,501
6/11/19 17:20,506
6/11/19 17:20,503
6/11/19 17:20,502
6/11/19 17:20,503
6/11/19 17:20,504
6/11/19 17:20,504
6/11/19 17:20,503
6/11/19 17:20,503
6/11/19 17:20,503
6/11/19 17:20,502
6/11/19 17:20,496
6/11/19 17:20,502
6/11/19 17:20,504
6/11/19 17:20,520
6/11/19 17:20,503
6/11/19 17:20,499
6/11/19 17:20,500
6/11/19 17:20,501
6/11/19 17:20,502
6/11/19 17:20,503
6/11/19 17:20,502
6/11/19 17:20,502
6/11/19 17:20,505
6/11/19 17:20,500
6/11/19 17:20,504
6/11/19 17:20,505
6/11/19 17:20,505
6/11/19 17:20,504
6/11/19 17:20,507
6/11/19 17:29,505
6/11/19 17:29,509
6/11/19 17:29,496
6/11/19 17:29,511
6/11/19 17:29,500
6/11/19 17:29,499
6/11/19 17:29,504
6/11/19 17:29,502
6/11/19 17:29,503
6/11/19 17:29,505
6/11/19 17:29,503
6/11/19 17:29,507
6/11/19 17:29,500
6/11/19 17:29,506
6/11/19 17:29,505
6/11/19 17:29,503
6/11/19 17:29,507
6/11/19 17:29,502
6/11/19 17:29,506
6/11/19 17:29,503
6/11/19 17:29,502
6/11/19 17:29,504
6/11/19 17:29,498
6/11/19 17:29,505
6/11/19 17:29,502
6/11/19 17:29,501
6/11/19 17:29,506
6/11/19 17:29,499
6/11/19 17:29,503
6/11/19 17:29,502
6/11/19 17:29,501
6/11/19 17:29,505
6/11/19 17:29,501
6/11/19 17:29,503
6/11/19 17:29,502
6/11/19 17:29,503
6/11/19 17:29,505
6/11/19 17:29,501
6/11/19 17:29,505
6/11/19 17:29,505
6/11/19 17:29,532
6/11/19 17:29,482
6/11/19 17:29,482
6/11/19 17:29,494
6/11/19 17:29,497
6/11/19 17:29,501
6/11/19 17:29,505
6/11/19 17:29,502
6/11/19 17:29,514
6/11/19 17:29,505
6/11/19 17:29,502
6/11/19 17:29,499
6/11/19 17:29,504
6/11/19 17:29,509
6/11/19 17:29,504
6/11/19 17:29,506
6/11/19 17:29,506
6/11/19 17:29,502
6/11/19 17:29,505
6/11/19 17:29,502
6/11/19 17:29,503
6/11/19 17:29,503
6/11/19 17:29,501
6/11/19 17:29,505
6/11/19 17:29,504
6/11/19 17:29,506
6/11/19 17:29,506
6/11/19 17:29,502
6/11/19 17:29,506
6/11/19 17:29,499
6/11/19 17:29,506
6/11/19 17:29,505
6/11/19 17:29,507
6/11/19 17:29,508
6/11/19 17:29,500
6/11/19 17:29,501
6/11/19 17:29,503
6/11/19 17:29,500
6/11/19 17:29,505
6/11/19 17:29,501
6/11/19 17:29,502
6/11/19 17:29,504
6/11/19 17:29,502
6/11/19 17:29,508
6/11/19 17:29,502
6/11/19 17:29,505
6/11/19 17:29,505
6/11/19 17:29,500
6/11/19 17:29,505
6/11/19 17:29,499
6/11/19 17:29,509
6/11/19 17:29,505
6/11/19 17:29,498
6/11/19 17:29,507
6/11/19 17:29,500
6/11/19 17:29,499
6/11/19 17:29,501
6/11/19 17:29,498
6/11/19 17:29,505
6/11/19 17:29,503
6/11/19 17:29,505
6/11/19 17:29,505
6/11/19 17:29,500
6/11/19 17:29,502
6/11/19 17:29,500
6/11/19 17:29,502
6/11/19 17:29,504
6/11/19 17:29,501
6/11/19 17:29,512
6/11/19 17:29,487
6/11/19 17:29,499
6/11/19 17:29,501
6/11/19 17:29,502
6/11/19 17:29,509
6/11/19 17:29,505
6/11/19 17:29,510
6/11/19 17:29,506
6/11/19 17:29,503
6/11/19 17:29,507
6/11/19 17:29,501
6/11/19 17:29,521
6/11/19 17:29,492
6/11/19 17:29,494
6/11/19 17:29,522
6/11/19 17:29,498
6/11/19 17:29,498
6/11/19 17:29,501
6/11/19 17:29,504
6/11/19 17:29,503
6/11/19 17:29,524
6/11/19 17:29,498
6/11/19 17:29,509
6/11/19 17:29,522
6/11/19 17:29,481
6/11/19 17:29,490
6/11/19 17:29,500
6/11/19 17:29,502
6/11/19 17:29,503
6/11/19 17:29,505
6/11/19 17:29,501
6/11/19 17:29,514
6/11/19 17:29,506
6/11/19 17:29,499
6/11/19 17:29,504
6/11/19 17:29,496
6/11/19 17:29,505
6/11/19 17:29,504
6/11/19 17:29,507
6/11/19 17:29,508
6/11/19 17:29,503
6/11/19 17:29,510
6/11/19 17:29,504
6/11/19 17:29,502
6/11/19 17:29,504
6/11/19 17:29,494
6/11/19 17:29,508
6/11/19 17:29,505
6/11/19 17:29,505
6/11/19 17:29,508
6/11/19 17:29,502
6/11/19 17:29,507
6/11/19 17:29,502
6/11/19 17:29,504
6/11/19 17:29,510
6/11/19 17:29,493
6/11/19 17:29,503
6/11/19 17:29,494
6/11/19 17:29,494
6/11/19 17:29,507
6/11/19 17:29,505
6/11/19 17:29,509
6/11/19 17:29,506
6/11/19 17:29,504
6/11/19 17:29,505
6/11/19 17:29,500
6/11/19 17:29,507
6/11/19 17:29,502
6/11/19 17:29,504
6/11/19 17:29,506
6/11/19 17:29,500
6/11/19 17:29,506
6/11/19 17:29,501
6/11/19 17:29,503
6/11/19 17:29,505
6/11/19 17:29,500
6/11/19 17:29,505
6/11/19 17:29,500
6/11/19 17:29,502
6/11/19 17:29,508
6/11/19 17:29,502
6/11/19 17:29,506
6/11/19 17:29,495
6/11/19 17:29,502
6/11/19 17:29,513
6/11/19 17:29,494
6/11/19 17:29,498
6/11/19 17:29,496
6/11/19 17:29,501
6/11/19 17:29,505
6/11/19 17:29,500
6/11/19 17:29,502
6/11/19 17:29,505
6/11/19 17:29,506
6/11/19 17:29,530
6/11/19 17:29,508
6/11/19 17:29,525
6/11/19 17:29,468
6/11/19 17:29,489
6/11/19 17:29,498
6/11/19 17:29,498
6/11/19 17:29,514
6/11/19 17:29,503
6/11/19 17:29,506
6/11/19 17:29,508
6/11/19 17:29,505
6/11/19 17:29,504
6/11/19 17:29,505
6/11/19 17:29,509
6/11/19 17:29,509
6/11/19 17:29,502
6/11/19 17:29,508
6/11/19 17:29,501
6/11/19 17:29,505
6/11/19 17:29,505
6/11/19 17:29,502
6/11/19 17:29,523
6/11/19 17:29,492
6/11/19 17:29,498
6/11/19 17:29,502
6/11/19 17:29,501
6/11/19 17:29,511
6/11/19 17:29,501
6/11/19 17:29,507
6/11/19 17:29,506
6/11/19 17:29,503
6/11/19 17:29,507
6/11/19 17:29,500
6/11/19 17:29,506
6/11/19 17:29,505
6/11/19 17:29,504
6/11/19 17:29,508
6/11/19 17:29,501
6/11/19 17:29,506
6/11/19 17:29,505
6/11/19 17:29,502
6/11/19 17:29,500
6/11/19 17:29,500
6/11/19 17:29,508
6/11/19 17:29,508
6/11/19 17:29,501
6/11/19 17:29,506
6/11/19 17:29,499
6/11/19 17:29,507
6/11/19 17:29,501
6/11/19 17:29,500
6/11/19 17:29,504
6/11/19 17:29,497
6/11/19 17:29,504
6/11/19 17:29,501
6/11/19 17:29,501
6/11/19 17:29,505
6/11/19 17:29,498
6/11/19 17:29,505
6/11/19 17:29,499
6/11/19 17:29,503
6/11/19 17:29,509
6/11/19 17:29,500
6/11/19 17:29,508
6/11/19 17:29,502
6/11/19 17:29,536
6/11/19 17:29,495
6/11/19 17:29,481
6/11/19 17:29,497
6/11/19 17:29,496
6/11/19 17:29,498
6/11/19 17:29,503
6/11/19 17:29,499
6/11/19 17:29,507
6/11/19 17:29,504
6/11/19 17:29,507
6/11/19 17:29,505
6/11/19 17:29,499
6/11/19 17:29,507
6/11/19 17:29,498
6/11/19 17:29,507
6/11/19 17:29,509
6/11/19 17:29,499
6/11/19 17:29,508
6/11/19 17:29,501
6/11/19 17:29,506
6/11/19 17:29,507
6/11/19 17:29,501
6/11/19 17:29,507
6/11/19 17:29,501
6/11/19 17:29,504
6/11/19 17:29,510
6/11/19 17:29,501
6/11/19 17:29,501
6/11/19 17:29,496
6/11/19 17:29,501
6/11/19 17:29,504
6/11/19 17:29,502
6/11/19 17:29,508
6/11/19 17:29,502
6/11/19 17:29,506
6/11/19 17:29,509
6/11/19 17:29,502
6/11/19 17:29,507
6/11/19 17:29,507
6/11/19 17:29,502
6/11/19 17:29,500
6/11/19 17:29,501
6/11/19 17:29,507
6/11/19 17:29,498
6/11/19 17:29,505
6/11/19 17:29,507
6/11/19 17:29,502
6/11/19 17:29,508
6/11/19 17:29,508
6/11/19 17:29,505
6/11/19 17:29,501
6/11/19 17:29,496
6/11/19 17:29,506
6/11/19 17:29,499
6/11/19 17:29,504
6/11/19 17:29,505
6/11/19 17:29,502
6/11/19 17:29,509
6/11/19 17:29,503
6/11/19 17:29,506
6/11/19 17:29,500
6/11/19 17:29,501
6/11/19 17:29,509
6/11/19 17:29,503
6/11/19 17:29,532
6/11/19 17:29,517
6/11/19 17:29,475
6/11/19 17:29,492
6/11/19 17:29,491
6/11/19 17:29,501
6/11/19 17:29,503
6/11/19 17:29,500
6/11/19 17:29,508
6/11/19 17:29,499
6/11/19 17:29,507
6/11/19 17:29,506
6/11/19 17:29,501
6/11/19 17:29,507
6/11/19 17:29,499
6/11/19 17:29,506
6/11/19 17:29,504
6/11/19 17:29,501
6/11/19 17:29,507
6/11/19 17:29,498
6/11/19 17:29,508
6/11/19 17:29,499
6/11/19 17:29,503
6/11/19 17:29,510
6/11/19 17:29,502
6/11/19 17:29,505
6/11/19 17:29,504
6/11/19 17:29,503
6/11/19 17:29,509
6/11/19 17:29,501
6/11/19 17:29,515
6/11/19 17:29,497
6/11/19 17:29,497
6/11/19 17:29,504
6/11/19 17:29,497
6/11/19 17:29,506
6/11/19 17:29,503
6/11/19 17:29,502
6/11/19 17:29,508
6/11/19 17:29,504
6/11/19 17:29,509
6/11/19 17:29,504
6/11/19 17:29,501
6/11/19 17:29,507
6/11/19 17:29,501
6/11/19 17:29,507
6/11/19 17:29,503
6/11/19 17:29,516
6/11/19 17:29,492
6/11/19 17:29,499
6/11/19 17:29,506
6/11/19 17:29,497
6/11/19 17:29,500
6/11/19 17:29,508
6/11/19 17:29,500
6/11/19 17:29,508
6/11/19 17:29,503
6/11/19 17:29,504
6/11/19 17:29,507
6/11/19 17:29,499
6/11/19 17:29,505
6/11/19 17:29,501
6/11/19 17:29,529
6/11/19 17:29,520
6/11/19 17:29,478
6/11/19 17:29,494
6/11/19 17:29,492
6/11/19 17:29,496
6/11/19 17:29,506
6/11/19 17:29,499
6/11/19 17:29,508
6/11/19 17:29,504
6/11/19 17:29,506
6/11/19 17:29,506
6/11/19 17:29,499
6/11/19 17:29,507
6/11/19 17:29,502
6/11/19 17:29,504
6/11/19 17:29,507
6/11/19 17:29,501
6/11/19 17:29,506
6/11/19 17:29,499
6/11/19 17:29,502
6/11/19 17:29,505
6/11/19 17:29,499
6/11/19 17:29,504
6/11/19 17:29,508
6/11/19 17:29,506
6/11/19 17:29,506
6/11/19 17:29,503
6/11/19 17:29,509
6/11/19 17:29,501
6/11/19 17:29,506
6/11/19 17:29,505
6/11/19 17:29,496
6/11/19 17:29,507
6/11/19 17:29,501
6/11/19 17:29,507
6/11/19 17:29,508
6/11/19 17:29,495
6/11/19 17:29,501
6/11/19 17:29,499
6/11/19 17:29,505
6/11/19 17:29,505
6/11/19 17:29,502
6/11/19 17:29,508
6/11/19 17:29,501
6/11/19 17:29,504
6/11/19 17:29,501
6/11/19 17:29,503
6/11/19 17:29,510
6/11/19 17:29,501
6/11/19 17:29,504
6/11/19 17:29,504
6/11/19 17:29,502
6/11/19 17:29,503
6/11/19 17:29,501
6/11/19 17:29,506
6/11/19 17:29,505
6/11/19 17:29,501
6/11/19 17:29,507
6/11/19 17:29,510
6/11/19 17:29,504
6/11/19 17:29,495
6/11/19 17:29,491
6/11/19 17:29,502
6/11/19 17:29,502
6/11/19 17:29,505
6/11/19 17:29,504
6/11/19 17:29,502
6/11/19 17:29,506
6/11/19 17:29,503
6/11/19 17:29,507
6/11/19 17:29,505
6/11/19 17:29,502
6/11/19 17:29,505
6/11/19 17:29,499
6/11/19 17:29,504
6/11/19 17:29,503
6/11/19 17:29,501
6/11/19 17:29,507
6/11/19 17:29,499
6/11/19 17:29,506
6/11/19 17:29,504
6/11/19 17:29,506
6/11/19 17:29,504
6/11/19 17:29,496
6/11/19 17:29,507
6/11/19 17:29,504
6/11/19 17:29,503
6/11/19 17:29,507
6/11/19 17:29,502
6/11/19 17:29,506
6/11/19 17:29,503
6/11/19 17:29,532
6/11/19 17:29,489
6/11/19 17:29,482
6/11/19 17:29,491
6/11/19 17:29,499
6/11/19 17:29,502
6/11/19 17:29,507
6/11/19 17:29,502
6/11/19 17:29,507
6/11/19 17:29,504
6/11/19 17:29,506
6/11/19 17:29,516
6/11/19 17:29,499
6/11/19 17:29,502
6/11/19 17:29,497
6/11/19 17:29,501
6/11/19 17:29,504
6/11/19 17:29,501
6/11/19 17:29,507
6/11/19 17:29,505
6/11/19 17:29,505
6/11/19 17:29,503
6/11/19 17:29,505
6/11/19 17:29,510
6/11/19 17:29,504
6/11/19 17:29,505
6/11/19 17:29,511
6/11/19 17:29,502
6/11/19 17:29,507
6/11/19 17:29,502
6/11/19 17:29,500
6/11/19 17:29,508
6/11/19 17:29,503
6/11/19 17:29,509
6/11/19 17:29,503
6/11/19 17:29,502
6/11/19 17:29,504
6/11/19 17:29,501
6/11/19 17:29,504
6/11/19 17:29,496
6/11/19 17:29,507
6/11/19 17:29,504
6/11/19 17:29,501
6/11/19 17:29,505
6/11/19 17:29,503
6/11/19 17:29,504
6/11/19 17:29,497
6/11/19 17:29,500
6/11/19 17:29,506
6/11/19 17:29,504
6/11/19 17:29,505
6/11/19 17:29,505
6/11/19 17:29,499
6/11/19 17:29,501
6/11/19 17:29,505
6/11/19 17:29,503
6/11/19 17:29,503
6/11/19 17:29,501
6/11/19 17:29,506
6/11/19 17:29,501
6/11/19 17:29,505
6/11/19 17:29,502
6/11/19 17:29,500
6/11/19 17:29,505
6/11/19 17:29,502
6/11/19 17:29,497
6/11/19 17:29,505
6/11/19 17:29,506
6/11/19 17:29,528
6/11/19 17:29,481
6/11/19 17:29,490
6/11/19 17:29,495
6/11/19 17:29,496
6/11/19 17:29,503
6/11/19 17:29,501
6/11/19 17:29,505
6/11/19 17:29,503
6/11/19 17:29,503
6/11/19 17:29,522
6/11/19 17:29,498
6/11/19 17:29,498
6/11/19 17:29,501
6/11/19 17:29,493
6/11/19 17:29,506
6/11/19 17:29,503
6/11/19 17:29,506
6/11/19 17:29,502
6/11/19 17:29,505
6/11/19 17:29,528
6/11/19 17:29,501
6/11/19 17:29,501
6/11/19 17:29,498
6/11/19 17:29,506
6/11/19 17:29,507
6/11/19 17:29,501
6/11/19 17:29,506
6/11/19 17:29,504
6/11/19 17:29,506
6/11/19 17:29,508
6/11/19 17:29,506
6/11/19 17:29,510
6/11/19 17:29,503
6/11/19 17:29,501
6/11/19 17:29,505
6/11/19 17:29,502
6/11/19 17:29,507
6/11/19 17:29,500
6/11/19 17:29,502
6/11/19 17:29,508
6/11/19 17:29,502
6/11/19 17:29,505
6/11/19 17:29,503
6/11/19 17:38,495
6/11/19 17:38,498
6/11/19 17:38,511
6/11/19 17:38,498
6/11/19 17:38,499
6/11/19 17:38,501
6/11/19 17:38,499
6/11/19 17:38,517
6/11/19 17:38,526
6/11/19 17:38,487
6/11/19 17:38,483
6/11/19 17:38,497
6/11/19 17:38,494
6/11/19 17:38,503
6/11/19 17:38,507
6/11/19 17:38,507
6/11/19 17:38,506
6/11/19 17:38,506
6/11/19 17:38,504
6/11/19 17:38,504
6/11/19 17:38,504
6/11/19 17:38,504
6/11/19 17:38,504
6/11/19 17:38,503
6/11/19 17:38,503
6/11/19 17:38,501
6/11/19 17:38,502
6/11/19 17:38,504
6/11/19 17:38,502
6/11/19 17:38,499
6/11/19 17:38,507
6/11/19 17:38,508
6/11/19 17:38,507
6/11/19 17:38,506
6/11/19 17:38,503
6/11/19 17:38,505
6/11/19 17:38,506
6/11/19 17:38,504
6/11/19 17:38,503
6/11/19 17:38,505
6/11/19 17:38,503
6/11/19 17:38,502
6/11/19 17:38,506
6/11/19 17:38,506
6/11/19 17:38,503
6/11/19 17:38,504
6/11/19 17:38,501
6/11/19 17:38,500
6/11/19 17:38,504
6/11/19 17:38,505
6/11/19 17:38,498
6/11/19 17:38,508
6/11/19 17:38,504
6/11/19 17:38,503
6/11/19 17:38,503
6/11/19 17:38,503
6/11/19 17:38,503
6/11/19 17:38,501
6/11/19 17:38,501
6/11/19 17:38,505
6/11/19 17:38,504
6/11/19 17:38,510
6/11/19 17:38,504
6/11/19 17:38,490
6/11/19 17:38,501
6/11/19 17:38,505
