X,Bin ECG
5/24/19 14:39,479
5/24/19 14:39,477
5/24/19 14:39,485
5/24/19 14:39,476
5/24/19 14:39,486
5/24/19 14:39,490
5/24/19 14:39,486
5/24/19 14:39,497
5/24/19 14:39,488
5/24/19 14:39,498
5/24/19 14:39,501
5/24/19 14:39,495
5/24/19 14:39,506
5/24/19 14:39,496
5/24/19 14:39,500
5/24/19 14:39,504
5/24/19 14:39,499
5/24/19 14:39,523
5/24/19 14:39,490
5/24/19 14:39,482
5/24/19 14:39,475
5/24/19 14:39,469
5/24/19 14:39,487
5/24/19 14:39,487
5/24/19 14:39,501
5/24/19 14:39,503
5/24/19 14:39,501
5/24/19 14:39,508
5/24/19 14:39,503
5/24/19 14:39,508
5/24/19 14:39,502
5/24/19 14:39,503
5/24/19 14:39,516
5/24/19 14:39,508
5/24/19 14:39,520
5/24/19 14:39,518
5/24/19 14:39,515
5/24/19 14:39,524
5/24/19 14:39,510
5/24/19 14:39,520
5/24/19 14:39,515
5/24/19 14:39,511
5/24/19 14:39,520
5/24/19 14:39,507
5/24/19 14:39,521
5/24/19 14:39,519
5/24/19 14:39,520
5/24/19 14:39,528
5/24/19 14:39,518
5/24/19 14:39,531
5/24/19 14:39,525
5/24/19 14:39,522
5/24/19 14:39,522
5/24/19 14:39,504
5/24/19 14:39,510
5/24/19 14:39,495
5/24/19 14:39,491
5/24/19 14:39,491
5/24/19 14:39,477
5/24/19 14:39,487
5/24/19 14:39,484
5/24/19 14:39,481
5/24/19 14:39,493
5/24/19 14:39,486
5/24/19 14:39,501
5/24/19 14:39,495
5/24/19 14:39,499
5/24/19 14:39,503
5/24/19 14:39,494
5/24/19 14:39,507
5/24/19 14:39,499
5/24/19 14:39,503
5/24/19 14:39,508
5/24/19 14:39,511
5/24/19 14:39,500
5/24/19 14:39,478
5/24/19 14:39,473
5/24/19 14:39,475
5/24/19 14:39,473
5/24/19 14:39,494
5/24/19 14:39,497
5/24/19 14:39,504
5/24/19 14:39,510
5/24/19 14:39,501
5/24/19 14:39,510
5/24/19 14:39,503
5/24/19 14:39,508
5/24/19 14:39,513
5/24/19 14:39,505
5/24/19 14:39,520
5/24/19 14:39,507
5/24/19 14:39,516
5/24/19 14:39,522
5/24/19 14:39,513
5/24/19 14:39,524
5/24/19 14:39,511
5/24/19 14:39,514
5/24/19 14:39,516
5/24/19 14:39,508
5/24/19 14:39,523
5/24/19 14:39,517
5/24/19 14:39,522
5/24/19 14:39,526
5/24/19 14:39,520
5/24/19 14:39,529
5/24/19 14:39,519
5/24/19 14:39,528
5/24/19 14:39,523
5/24/19 14:39,511
5/24/19 14:39,515
5/24/19 14:39,496
5/24/19 14:39,501
5/24/19 14:39,493
5/24/19 14:39,484
5/24/19 14:39,491
5/24/19 14:39,480
5/24/19 14:39,489
5/24/19 14:39,487
5/24/19 14:39,485
5/24/19 14:39,498
5/24/19 14:39,486
5/24/19 14:39,496
5/24/19 14:39,499
5/24/19 14:39,494
5/24/19 14:39,505
5/24/19 14:39,497
5/24/19 14:39,506
5/24/19 14:39,503
5/24/19 14:39,518
5/24/19 14:39,510
5/24/19 14:39,482
5/24/19 14:39,481
5/24/19 14:39,472
5/24/19 14:39,472
5/24/19 14:39,492
5/24/19 14:39,491
5/24/19 14:39,505
5/24/19 14:39,496
5/24/19 14:39,507
5/24/19 14:39,515
5/24/19 14:39,502
5/24/19 14:39,510
5/24/19 14:39,504
5/24/19 14:39,505
5/24/19 14:39,515
5/24/19 14:39,504
5/24/19 14:39,518
5/24/19 14:39,513
5/24/19 14:39,515
5/24/19 14:39,521
5/24/19 14:39,511
5/24/19 14:39,522
5/24/19 14:39,514
5/24/19 14:39,507
5/24/19 14:39,522
5/24/19 14:39,513
5/24/19 14:39,526
5/24/19 14:39,521
5/24/19 14:39,522
5/24/19 14:39,527
5/24/19 14:39,519
5/24/19 14:39,530
5/24/19 14:39,520
5/24/19 14:39,522
5/24/19 14:39,523
5/24/19 14:39,505
5/24/19 14:39,508
5/24/19 14:39,493
5/24/19 14:39,490
5/24/19 14:39,488
5/24/19 14:39,478
5/24/19 14:39,488
5/24/19 14:39,479
5/24/19 14:39,485
5/24/19 14:39,491
5/24/19 14:39,483
5/24/19 14:39,501
5/24/19 14:39,495
5/24/19 14:39,503
5/24/19 14:39,505
5/24/19 14:39,496
5/24/19 14:39,510
5/24/19 14:39,500
5/24/19 14:39,503
5/24/19 14:39,519
5/24/19 14:39,500
5/24/19 14:39,493
5/24/19 14:39,474
5/24/19 14:39,473
5/24/19 14:39,478
5/24/19 14:39,482
5/24/19 14:39,501
5/24/19 14:39,498
5/24/19 14:39,507
5/24/19 14:39,506
5/24/19 14:39,498
5/24/19 14:39,509
5/24/19 14:39,499
5/24/19 14:39,507
5/24/19 14:39,511
5/24/19 14:39,506
5/24/19 14:39,519
5/24/19 14:39,514
5/24/19 14:39,520
5/24/19 14:39,520
5/24/19 14:39,515
5/24/19 14:39,524
5/24/19 14:39,511
5/24/19 14:39,517
5/24/19 14:39,516
5/24/19 14:39,510
5/24/19 14:39,521
5/24/19 14:39,514
5/24/19 14:39,525
5/24/19 14:39,526
5/24/19 14:39,519
5/24/19 14:39,530
5/24/19 14:39,520
5/24/19 14:39,529
5/24/19 14:39,523
5/24/19 14:39,513
5/24/19 14:39,510
5/24/19 14:39,489
5/24/19 14:39,492
5/24/19 14:39,487
5/24/19 14:39,481
5/24/19 14:39,491
5/24/19 14:39,479
5/24/19 14:39,490
5/24/19 14:39,490
5/24/19 14:39,491
5/24/19 14:39,500
5/24/19 14:39,490
5/24/19 14:39,501
5/24/19 14:39,498
5/24/19 14:39,497
5/24/19 14:39,507
5/24/19 14:39,496
5/24/19 14:39,506
5/24/19 14:39,501
5/24/19 14:39,518
5/24/19 14:39,502
5/24/19 14:39,476
5/24/19 14:39,476
5/24/19 14:39,470
5/24/19 14:39,473
5/24/19 14:39,489
5/24/19 14:39,493
5/24/19 14:39,511
5/24/19 14:39,500
5/24/19 14:39,498
5/24/19 14:39,507
5/24/19 14:39,499
5/24/19 14:39,513
5/24/19 14:39,508
5/24/19 14:39,512
5/24/19 14:39,520
5/24/19 14:39,512
5/24/19 14:39,522
5/24/19 14:39,516
5/24/19 14:39,517
5/24/19 14:39,521
5/24/19 14:39,513
5/24/19 14:39,521
5/24/19 14:39,513
5/24/19 14:39,511
5/24/19 14:39,518
5/24/19 14:39,516
5/24/19 14:39,526
5/24/19 14:39,518
5/24/19 14:39,523
5/24/19 14:39,526
5/24/19 14:39,519
5/24/19 14:39,529
5/24/19 14:39,517
5/24/19 14:39,516
5/24/19 14:39,513
5/24/19 14:39,500
5/24/19 14:39,506
5/24/19 14:39,488
5/24/19 14:39,489
5/24/19 14:39,487
5/24/19 14:39,478
5/24/19 14:39,491
5/24/19 14:39,482
5/24/19 14:39,490
5/24/19 14:39,490
5/24/19 14:39,489
5/24/19 14:39,500
5/24/19 14:39,493
5/24/19 14:39,504
5/24/19 14:39,506
5/24/19 14:39,498
5/24/19 14:39,508
5/24/19 14:39,497
5/24/19 14:39,511
5/24/19 14:39,515
5/24/19 14:39,483
5/24/19 14:39,481
5/24/19 14:39,466
5/24/19 14:39,476
5/24/19 14:39,484
5/24/19 14:39,490
5/24/19 14:39,505
5/24/19 14:39,501
5/24/19 14:39,511
5/24/19 14:39,506
5/24/19 14:39,501
5/24/19 14:39,510
5/24/19 14:39,501
5/24/19 14:39,512
5/24/19 14:39,510
5/24/19 14:39,509
5/24/19 14:39,522
5/24/19 14:39,506
5/24/19 14:39,519
5/24/19 14:39,518
5/24/19 14:39,516
5/24/19 14:39,524
5/24/19 14:39,513
5/24/19 14:39,517
5/24/19 14:39,513
5/24/19 14:39,513
5/24/19 14:39,523
5/24/19 14:39,514
5/24/19 14:39,526
5/24/19 14:39,523
5/24/19 14:39,519
5/24/19 14:39,528
5/24/19 14:39,520
5/24/19 14:39,528
5/24/19 14:39,516
5/24/19 14:39,509
5/24/19 14:39,508
5/24/19 14:39,488
5/24/19 14:39,492
5/24/19 14:39,482
5/24/19 14:39,481
5/24/19 14:39,489
5/24/19 14:39,479
5/24/19 14:39,488
5/24/19 14:39,489
5/24/19 14:39,494
5/24/19 14:39,500
5/24/19 14:39,492
5/24/19 14:39,503
5/24/19 14:39,497
5/24/19 14:39,501
5/24/19 14:39,504
5/24/19 14:39,496
5/24/19 14:39,509
5/24/19 14:39,517
5/24/19 14:39,502
5/24/19 14:39,489
5/24/19 14:39,472
5/24/19 14:39,478
5/24/19 14:39,473
5/24/19 14:39,485
5/24/19 14:39,500
5/24/19 14:39,497
5/24/19 14:39,508
5/24/19 14:39,500
5/24/19 14:39,515
5/24/19 14:39,514
5/24/19 14:39,500
5/24/19 14:39,511
5/24/19 14:39,501
5/24/19 14:39,508
5/24/19 14:39,515
5/24/19 14:39,509
5/24/19 14:39,517
5/24/19 14:39,509
5/24/19 14:39,516
5/24/19 14:39,517
5/24/19 14:39,510
5/24/19 14:39,523
5/24/19 14:39,509
5/24/19 14:39,519
5/24/19 14:39,520
5/24/19 14:39,516
5/24/19 14:39,530
5/24/19 14:39,520
5/24/19 14:39,529
5/24/19 14:39,528
5/24/19 14:39,524
5/24/19 14:39,529
5/24/19 14:39,513
5/24/19 14:39,516
5/24/19 14:39,505
5/24/19 14:39,497
5/24/19 14:39,495
5/24/19 14:39,479
5/24/19 14:39,485
5/24/19 14:39,485
5/24/19 14:39,481
5/24/19 14:39,492
5/24/19 14:39,485
5/24/19 14:39,497
5/24/19 14:39,495
5/24/19 14:39,494
5/24/19 14:39,504
5/24/19 14:39,493
5/24/19 14:39,499
5/24/19 14:39,499
5/24/19 14:39,500
5/24/19 14:39,509
5/24/19 14:39,497
5/24/19 14:39,526
5/24/19 14:39,508
5/24/19 14:39,484
5/24/19 14:39,482
5/24/19 14:39,468
5/24/19 14:39,481
5/24/19 14:39,485
5/24/19 14:39,492
5/24/19 14:39,503
5/24/19 14:39,494
5/24/19 14:39,507
5/24/19 14:39,504
5/24/19 14:39,500
5/24/19 14:39,509
5/24/19 14:39,500
5/24/19 14:39,511
5/24/19 14:39,508
5/24/19 14:39,515
5/24/19 14:39,523
5/24/19 14:39,513
5/24/19 14:39,524
5/24/19 14:39,517
5/24/19 14:39,515
5/24/19 14:39,521
5/24/19 14:39,511
5/24/19 14:39,522
5/24/19 14:39,513
5/24/19 14:39,519
5/24/19 14:39,524
5/24/19 14:39,518
5/24/19 14:39,531
5/24/19 14:39,520
5/24/19 14:39,521
5/24/19 14:39,527
5/24/19 14:39,519
5/24/19 14:39,525
5/24/19 14:39,508
5/24/19 14:39,505
5/24/19 14:39,501
5/24/19 14:39,486
5/24/19 14:39,493
5/24/19 14:39,480
5/24/19 14:39,482
5/24/19 14:39,485
5/24/19 14:39,478
5/24/19 14:39,491
5/24/19 14:39,487
5/24/19 14:39,497
5/24/19 14:39,501
5/24/19 14:39,493
5/24/19 14:39,507
5/24/19 14:39,497
5/24/19 14:39,505
5/24/19 14:39,508
5/24/19 14:39,500
5/24/19 14:39,510
5/24/19 14:39,515
5/24/19 14:39,499
5/24/19 14:39,483
5/24/19 14:39,469
5/24/19 14:39,478
5/24/19 14:39,474
5/24/19 14:39,491
5/24/19 14:39,500
5/24/19 14:39,498
5/24/19 14:39,508
5/24/19 14:39,498
5/24/19 14:39,506
5/24/19 14:39,507
5/24/19 14:39,502
5/24/19 14:39,514
5/24/19 14:39,504
5/24/19 14:39,515
5/24/19 14:39,513
5/24/19 14:39,511
5/24/19 14:39,525
5/24/19 14:39,512
5/24/19 14:39,522
5/24/19 14:39,520
5/24/19 14:39,512
5/24/19 14:39,521
5/24/19 14:39,508
5/24/19 14:39,518
5/24/19 14:39,516
5/24/19 14:39,519
5/24/19 14:39,527
5/24/19 14:39,516
5/24/19 14:39,529
5/24/19 14:39,524
5/24/19 14:39,525
5/24/19 14:39,529
5/24/19 14:39,510
5/24/19 14:39,514
5/24/19 14:39,500
5/24/19 14:39,491
5/24/19 14:39,494
5/24/19 14:39,477
5/24/19 14:39,484
5/24/19 14:39,478
5/24/19 14:39,481
5/24/19 14:39,492
5/24/19 14:39,481
5/24/19 14:39,498
5/24/19 14:39,496
5/24/19 14:39,499
5/24/19 14:39,505
5/24/19 14:39,494
5/24/19 14:39,507
5/24/19 14:39,501
5/24/19 14:39,502
5/24/19 14:39,506
5/24/19 14:39,507
5/24/19 14:39,518
5/24/19 14:39,487
5/24/19 14:39,476
5/24/19 14:39,476
5/24/19 14:39,470
5/24/19 14:39,488
5/24/19 14:39,490
5/24/19 14:39,499
5/24/19 14:39,507
5/24/19 14:39,495
5/24/19 14:39,509
5/24/19 14:39,497
5/24/19 14:39,504
5/24/19 14:39,509
5/24/19 14:39,503
5/24/19 14:39,518
5/24/19 14:39,510
5/24/19 14:39,518
5/24/19 14:39,522
5/24/19 14:39,514
5/24/19 14:39,525
5/24/19 14:39,514
5/24/19 14:39,517
5/24/19 14:39,517
5/24/19 14:39,509
5/24/19 14:39,520
5/24/19 14:39,512
5/24/19 14:39,521
5/24/19 14:39,523
5/24/19 14:39,518
5/24/19 14:39,529
5/24/19 14:39,517
5/24/19 14:39,525
5/24/19 14:39,523
5/24/19 14:39,515
5/24/19 14:39,520
5/24/19 14:39,503
5/24/19 14:39,502
5/24/19 14:39,493
5/24/19 14:39,485
5/24/19 14:39,494
5/24/19 14:39,480
5/24/19 14:39,489
5/24/19 14:39,489
5/24/19 14:39,486
5/24/19 14:39,495
5/24/19 14:39,489
5/24/19 14:39,502
5/24/19 14:39,501
5/24/19 14:39,497
5/24/19 14:39,509
5/24/19 14:39,498
5/24/19 14:39,508
5/24/19 14:39,502
5/24/19 14:39,500
5/24/19 14:39,508
5/24/19 14:39,498
5/24/19 14:39,520
5/24/19 14:39,491
5/24/19 14:39,474
5/24/19 14:39,475
5/24/19 14:39,468
5/24/19 14:39,483
5/24/19 14:39,487
5/24/19 14:39,498
5/24/19 14:39,507
5/24/19 14:39,497
5/24/19 14:39,507
5/24/19 14:39,503
5/24/19 14:39,503
5/24/19 14:39,511
5/24/19 14:39,503
5/24/19 14:39,514
5/24/19 14:39,513
5/24/19 14:39,517
5/24/19 14:39,523
5/24/19 14:39,513
5/24/19 14:39,524
5/24/19 14:39,514
5/24/19 14:39,514
5/24/19 14:39,518
5/24/19 14:48,499
5/24/19 14:48,497
5/24/19 14:48,504
5/24/19 14:48,492
5/24/19 14:48,502
5/24/19 14:48,495
5/24/19 14:48,499
5/24/19 14:48,508
5/24/19 14:48,498
5/24/19 14:48,514
5/24/19 14:48,509
5/24/19 14:48,513
5/24/19 14:48,515
5/24/19 14:48,504
5/24/19 14:48,521
5/24/19 14:48,511
5/24/19 14:48,515
5/24/19 14:48,516
5/24/19 14:48,509
5/24/19 14:48,521
5/24/19 14:48,508
5/24/19 14:48,520
5/24/19 14:48,526
5/24/19 14:48,518
5/24/19 14:48,530
5/24/19 14:48,518
5/24/19 14:48,520
5/24/19 14:48,522
5/24/19 14:48,514
5/24/19 14:48,520
5/24/19 14:48,503
5/24/19 14:48,507
5/24/19 14:48,501
5/24/19 14:48,489
5/24/19 14:48,496
5/24/19 14:48,481
5/24/19 14:48,489
5/24/19 14:48,488
5/24/19 14:48,484
5/24/19 14:48,497
5/24/19 14:48,491
5/24/19 14:48,503
5/24/19 14:48,504
5/24/19 14:48,499
5/24/19 14:48,513
5/24/19 14:48,498
5/24/19 14:48,503
5/24/19 14:48,505
5/24/19 14:48,519
5/24/19 14:48,504
5/24/19 14:48,478
5/24/19 14:48,483
5/24/19 14:48,480
5/24/19 14:48,478
5/24/19 14:48,494
5/24/19 14:48,492
5/24/19 14:48,498
5/24/19 14:48,498
5/24/19 14:48,497
5/24/19 14:48,510
5/24/19 14:48,493
5/24/19 14:48,506
5/24/19 14:48,506
5/24/19 14:48,506
5/24/19 14:48,520
5/24/19 14:48,509
5/24/19 14:48,522
5/24/19 14:48,515
5/24/19 14:48,512
5/24/19 14:48,519
5/24/19 14:48,508
5/24/19 14:48,521
5/24/19 14:48,511
5/24/19 14:48,513
5/24/19 14:48,518
5/24/19 14:48,509
5/24/19 14:48,523
5/24/19 14:48,514
5/24/19 14:48,518
5/24/19 14:48,526
5/24/19 14:48,516
5/24/19 14:48,529
5/24/19 14:48,517
5/24/19 14:48,516
5/24/19 14:48,516
5/24/19 14:48,498
5/24/19 14:48,505
5/24/19 14:48,489
5/24/19 14:48,490
5/24/19 14:48,490
5/24/19 14:48,481
5/24/19 14:48,495
5/24/19 14:48,487
5/24/19 14:48,491
5/24/19 14:48,500
5/24/19 14:48,492
5/24/19 14:48,504
5/24/19 14:48,493
5/24/19 14:48,504
5/24/19 14:48,506
5/24/19 14:48,499
5/24/19 14:48,510
5/24/19 14:48,506
5/24/19 14:48,518
5/24/19 14:48,494
5/24/19 14:48,474
5/24/19 14:48,482
5/24/19 14:48,472
5/24/19 14:48,485
5/24/19 14:48,495
5/24/19 14:48,490
5/24/19 14:48,502
5/24/19 14:48,488
5/24/19 14:48,502
5/24/19 14:48,505
5/24/19 14:48,502
5/24/19 14:48,515
5/24/19 14:48,506
5/24/19 14:48,517
5/24/19 14:48,517
5/24/19 14:48,511
5/24/19 14:48,519
5/24/19 14:48,506
5/24/19 14:48,516
5/24/19 14:48,518
5/24/19 14:48,513
5/24/19 14:48,524
5/24/19 14:48,507
5/24/19 14:48,518
5/24/19 14:48,517
5/24/19 14:48,516
5/24/19 14:48,522
5/24/19 14:48,512
5/24/19 14:48,526
5/24/19 14:48,519
5/24/19 14:48,518
5/24/19 14:48,528
5/24/19 14:48,513
5/24/19 14:48,520
5/24/19 14:48,501
5/24/19 14:48,498
5/24/19 14:48,501
5/24/19 14:48,485
5/24/19 14:48,492
5/24/19 14:48,491
5/24/19 14:48,480
5/24/19 14:48,494
5/24/19 14:48,488
5/24/19 14:48,500
5/24/19 14:48,496
5/24/19 14:48,498
5/24/19 14:48,509
5/24/19 14:48,491
5/24/19 14:48,508
5/24/19 14:48,495
5/24/19 14:48,501
5/24/19 14:48,513
5/24/19 14:48,510
5/24/19 14:48,493
5/24/19 14:48,483
5/24/19 14:48,479
5/24/19 14:48,481
5/24/19 14:48,481
5/24/19 14:48,502
5/24/19 14:48,500
5/24/19 14:48,501
5/24/19 14:48,505
5/24/19 14:48,495
5/24/19 14:48,498
5/24/19 14:48,499
5/24/19 14:48,496
5/24/19 14:48,516
5/24/19 14:48,505
5/24/19 14:48,523
5/24/19 14:48,512
5/24/19 14:48,515
5/24/19 14:48,515
5/24/19 14:48,511
5/24/19 14:48,526
5/24/19 14:48,513
5/24/19 14:48,518
5/24/19 14:48,519
5/24/19 14:48,508
5/24/19 14:48,522
5/24/19 14:48,511
5/24/19 14:48,520
5/24/19 14:48,524
5/24/19 14:48,513
5/24/19 14:48,527
5/24/19 14:48,515
5/24/19 14:48,520
5/24/19 14:48,519
5/24/19 14:48,504
5/24/19 14:48,513
5/24/19 14:48,490
5/24/19 14:48,491
5/24/19 14:48,490
5/24/19 14:48,483
5/24/19 14:48,496
5/24/19 14:48,482
5/24/19 14:48,491
5/24/19 14:48,496
5/24/19 14:48,494
5/24/19 14:48,508
5/24/19 14:48,489
5/24/19 14:48,501
5/24/19 14:48,499
5/24/19 14:48,497
5/24/19 14:48,508
5/24/19 14:48,498
5/24/19 14:48,505
5/24/19 14:48,505
5/24/19 14:48,519
5/24/19 14:48,516
5/24/19 14:48,480
5/24/19 14:48,485
5/24/19 14:48,476
5/24/19 14:48,478
5/24/19 14:48,495
5/24/19 14:48,486
5/24/19 14:48,501
5/24/19 14:48,494
5/24/19 14:48,497
5/24/19 14:48,513
5/24/19 14:48,497
5/24/19 14:48,506
5/24/19 14:48,505
5/24/19 14:48,505
5/24/19 14:48,520
5/24/19 14:48,511
5/24/19 14:48,523
5/24/19 14:48,514
5/24/19 14:48,514
5/24/19 14:48,521
5/24/19 14:48,509
5/24/19 14:48,523
5/24/19 14:48,513
5/24/19 14:48,514
5/24/19 14:48,523
5/24/19 14:48,507
5/24/19 14:48,525
5/24/19 14:48,518
5/24/19 14:48,520
5/24/19 14:48,525
5/24/19 14:48,511
5/24/19 14:48,525
5/24/19 14:48,513
5/24/19 14:48,516
5/24/19 14:48,515
5/24/19 14:48,498
5/24/19 14:48,506
5/24/19 14:48,490
5/24/19 14:48,486
5/24/19 14:48,491
5/24/19 14:48,481
5/24/19 14:48,495
5/24/19 14:48,486
5/24/19 14:48,493
5/24/19 14:48,499
5/24/19 14:48,491
5/24/19 14:48,505
5/24/19 14:48,494
5/24/19 14:48,498
5/24/19 14:48,507
5/24/19 14:48,498
5/24/19 14:48,512
5/24/19 14:48,500
5/24/19 14:48,504
5/24/19 14:48,521
5/24/19 14:48,487
5/24/19 14:48,491
5/24/19 14:48,474
5/24/19 14:48,484
5/24/19 14:48,488
5/24/19 14:48,487
5/24/19 14:48,500
5/24/19 14:48,490
5/24/19 14:48,505
5/24/19 14:48,505
5/24/19 14:48,497
5/24/19 14:48,513
5/24/19 14:48,501
5/24/19 14:48,512
5/24/19 14:48,514
5/24/19 14:48,510
5/24/19 14:48,522
5/24/19 14:48,508
5/24/19 14:48,518
5/24/19 14:48,518
5/24/19 14:48,509
5/24/19 14:48,522
5/24/19 14:48,507
5/24/19 14:48,517
5/24/19 14:48,513
5/24/19 14:48,509
5/24/19 14:48,524
5/24/19 14:48,513
5/24/19 14:48,526
5/24/19 14:48,522
5/24/19 14:48,519
5/24/19 14:48,528
5/24/19 14:48,514
5/24/19 14:48,522
5/24/19 14:48,514
5/24/19 14:48,505
5/24/19 14:48,503
5/24/19 14:48,489
5/24/19 14:48,496
5/24/19 14:48,488
5/24/19 14:48,487
5/24/19 14:48,497
5/24/19 14:48,482
5/24/19 14:48,494
5/24/19 14:48,492
5/24/19 14:48,495
5/24/19 14:48,503
5/24/19 14:48,494
5/24/19 14:48,505
5/24/19 14:48,501
5/24/19 14:48,502
5/24/19 14:48,511
5/24/19 14:48,495
5/24/19 14:48,515
5/24/19 14:48,515
5/24/19 14:48,487
5/24/19 14:48,483
5/24/19 14:48,471
5/24/19 14:48,486
5/24/19 14:48,481
5/24/19 14:48,491
5/24/19 14:48,500
5/24/19 14:48,493
5/24/19 14:48,508
5/24/19 14:48,499
5/24/19 14:48,503
5/24/19 14:48,509
5/24/19 14:48,502
5/24/19 14:48,517
5/24/19 14:48,507
5/24/19 14:48,512
5/24/19 14:48,516
5/24/19 14:48,507
5/24/19 14:48,522
5/24/19 14:48,509
5/24/19 14:48,515
5/24/19 14:48,518
5/24/19 14:48,506
5/24/19 14:48,521
5/24/19 14:48,506
5/24/19 14:48,516
5/24/19 14:48,521
5/24/19 14:48,515
5/24/19 14:48,525
5/24/19 14:48,515
5/24/19 14:48,522
5/24/19 14:48,520
5/24/19 14:48,514
5/24/19 14:48,525
5/24/19 14:48,505
5/24/19 14:48,512
5/24/19 14:48,503
5/24/19 14:48,492
5/24/19 14:48,496
5/24/19 14:48,484
5/24/19 14:48,491
5/24/19 14:48,486
5/24/19 14:48,484
5/24/19 14:48,499
5/24/19 14:48,489
5/24/19 14:48,502
5/24/19 14:48,500
5/24/19 14:48,496
5/24/19 14:48,507
5/24/19 14:48,496
5/24/19 14:48,510
5/24/19 14:48,505
5/24/19 14:48,495
5/24/19 14:48,508
5/24/19 14:48,517
5/24/19 14:48,503
5/24/19 14:48,482
5/24/19 14:48,474
5/24/19 14:48,482
5/24/19 14:48,471
5/24/19 14:48,502
5/24/19 14:48,492
5/24/19 14:48,497
5/24/19 14:48,509
5/24/19 14:48,494
5/24/19 14:48,511
5/24/19 14:48,496
5/24/19 14:48,503
5/24/19 14:48,516
5/24/19 14:48,505
5/24/19 14:48,522
5/24/19 14:48,513
5/24/19 14:48,516
5/24/19 14:48,522
5/24/19 14:48,508
5/24/19 14:48,518
5/24/19 14:48,508
5/24/19 14:48,509
5/24/19 14:48,517
5/24/19 14:48,505
5/24/19 14:48,521
5/24/19 14:48,513
5/24/19 14:48,520
5/24/19 14:48,525
5/24/19 14:48,516
5/24/19 14:48,528
5/24/19 14:48,515
5/24/19 14:48,518
5/24/19 14:48,522
5/24/19 14:48,511
5/24/19 14:48,514
5/24/19 14:48,498
5/24/19 14:48,495
5/24/19 14:48,496
5/24/19 14:48,482
5/24/19 14:48,495
5/24/19 14:48,480
5/24/19 14:48,489
5/24/19 14:48,496
5/24/19 14:48,487
5/24/19 14:48,501
5/24/19 14:48,493
5/24/19 14:48,503
5/24/19 14:48,500
5/24/19 14:48,496
5/24/19 14:48,510
5/24/19 14:48,497
5/24/19 14:48,509
5/24/19 14:48,518
5/24/19 14:48,508
5/24/19 14:48,497
5/24/19 14:48,475
5/24/19 14:48,475
5/24/19 14:48,479
5/24/19 14:48,481
5/24/19 14:48,503
5/24/19 14:48,491
5/24/19 14:48,498
5/24/19 14:48,499
5/24/19 14:48,499
5/24/19 14:48,511
5/24/19 14:48,492
5/24/19 14:48,511
5/24/19 14:48,514
5/24/19 14:48,511
5/24/19 14:48,523
5/24/19 14:48,511
5/24/19 14:48,520
5/24/19 14:48,517
5/24/19 14:48,514
5/24/19 14:48,523
5/24/19 14:48,508
5/24/19 14:48,518
5/24/19 14:48,511
5/24/19 14:48,508
5/24/19 14:48,520
5/24/19 14:48,508
5/24/19 14:48,523
5/24/19 14:48,517
5/24/19 14:48,517
5/24/19 14:48,525
5/24/19 14:48,514
5/24/19 14:48,524
5/24/19 14:48,515
5/24/19 14:48,509
5/24/19 14:48,509
5/24/19 14:48,492
5/24/19 14:48,501
5/24/19 14:48,488
5/24/19 14:48,486
5/24/19 14:48,492
5/24/19 14:48,485
5/24/19 14:48,498
5/24/19 14:48,490
5/24/19 14:48,494
5/24/19 14:48,504
5/24/19 14:48,494
5/24/19 14:48,507
5/24/19 14:48,496
5/24/19 14:48,498
5/24/19 14:48,506
5/24/19 14:48,496
5/24/19 14:48,511
5/24/19 14:48,517
5/24/19 14:48,511
5/24/19 14:48,494
5/24/19 14:48,474
5/24/19 14:48,482
5/24/19 14:48,475
5/24/19 14:48,481
5/24/19 14:48,494
5/24/19 14:48,491
5/24/19 14:48,506
5/24/19 14:48,497
5/24/19 14:48,501
5/24/19 14:48,503
5/24/19 14:48,498
5/24/19 14:48,515
5/24/19 14:48,504
5/24/19 14:48,516
5/24/19 14:48,520
5/24/19 14:48,510
5/24/19 14:48,518
5/24/19 14:48,505
5/24/19 14:48,518
5/24/19 14:48,520
5/24/19 14:48,512
5/24/19 14:48,524
5/24/19 14:48,510
5/24/19 14:48,511
5/24/19 14:48,518
5/24/19 14:48,515
5/24/19 14:48,527
5/24/19 14:48,514
5/24/19 14:48,522
5/24/19 14:48,520
5/24/19 14:48,511
5/24/19 14:48,525
5/24/19 14:48,514
5/24/19 14:48,520
5/24/19 14:48,507
5/24/19 14:48,497
5/24/19 14:48,503
5/24/19 14:48,485
5/24/19 14:48,493
5/24/19 14:48,487
5/24/19 14:48,484
5/24/19 14:48,493
5/24/19 14:48,485
5/24/19 14:48,497
5/24/19 14:48,495
5/24/19 14:48,495
5/24/19 14:48,506
5/24/19 14:48,494
5/24/19 14:48,508
5/24/19 14:48,500
5/24/19 14:48,497
5/24/19 14:48,507
5/24/19 14:48,512
5/24/19 14:48,514
5/24/19 14:48,485
5/24/19 14:48,477
5/24/19 14:48,481
5/24/19 14:48,473
5/24/19 14:48,494
5/24/19 14:48,493
5/24/19 14:48,495
5/24/19 14:48,502
5/24/19 14:48,493
5/24/19 14:48,506
5/24/19 14:48,500
5/24/19 14:48,505
5/24/19 14:48,514
5/24/19 14:48,500
5/24/19 14:48,518
5/24/19 14:48,510
5/24/19 14:48,516
5/24/19 14:48,520
5/24/19 14:48,508
5/24/19 14:48,520
5/24/19 14:48,510
5/24/19 14:48,513
5/24/19 14:48,518
5/24/19 14:48,506
5/24/19 14:48,520
5/24/19 14:48,511
5/24/19 14:48,522
5/24/19 14:48,526
5/24/19 14:48,516
5/24/19 14:48,527
5/24/19 14:48,517
5/24/19 14:48,522
5/24/19 14:48,523
5/24/19 14:48,511
5/24/19 14:48,520
5/24/19 14:48,499
5/24/19 14:48,503
5/24/19 14:48,498
5/24/19 14:48,485
5/24/19 14:48,496
5/24/19 14:48,482
5/24/19 14:48,491
5/24/19 14:48,492
5/24/19 14:48,486
5/24/19 14:48,501
5/24/19 14:48,491
5/24/19 14:48,500
5/24/19 14:48,502
5/24/19 14:48,500
5/24/19 14:48,511
5/24/19 14:48,499
5/24/19 14:48,506
5/24/19 14:48,503
5/24/19 14:48,516
5/24/19 14:48,500
5/24/19 14:48,472
5/24/19 14:57,503
5/24/19 14:57,505
5/24/19 14:57,497
5/24/19 14:57,511
5/24/19 14:57,505
5/24/19 14:57,510
5/24/19 14:57,516
5/24/19 14:57,508
5/24/19 14:57,522
5/24/19 14:57,512
5/24/19 14:57,514
5/24/19 14:57,518
5/24/19 14:57,506
5/24/19 14:57,519
5/24/19 14:57,510
5/24/19 14:57,516
5/24/19 14:57,520
5/24/19 14:57,509
5/24/19 14:57,526
5/24/19 14:57,514
5/24/19 14:57,518
5/24/19 14:57,523
5/24/19 14:57,512
5/24/19 14:57,524
5/24/19 14:57,508
5/24/19 14:57,511
5/24/19 14:57,507
5/24/19 14:57,492
5/24/19 14:57,498
5/24/19 14:57,486
5/24/19 14:57,488
5/24/19 14:57,490
5/24/19 14:57,484
5/24/19 14:57,499
5/24/19 14:57,490
5/24/19 14:57,498
5/24/19 14:57,500
5/24/19 14:57,497
5/24/19 14:57,510
5/24/19 14:57,496
5/24/19 14:57,506
5/24/19 14:57,503
5/24/19 14:57,498
5/24/19 14:57,509
5/24/19 14:57,497
5/24/19 14:57,530
5/24/19 14:57,497
5/24/19 14:57,480
5/24/19 14:57,484
5/24/19 14:57,473
5/24/19 14:57,483
5/24/19 14:57,490
5/24/19 14:57,491
5/24/19 14:57,506
5/24/19 14:57,503
5/24/19 14:57,508
5/24/19 14:57,502
5/24/19 14:57,497
5/24/19 14:57,507
5/24/19 14:57,497
5/24/19 14:57,511
5/24/19 14:57,508
5/24/19 14:57,509
5/24/19 14:57,521
5/24/19 14:57,508
5/24/19 14:57,520
5/24/19 14:57,513
5/24/19 14:57,512
5/24/19 14:57,521
5/24/19 14:57,507
5/24/19 14:57,520
5/24/19 14:57,512
5/24/19 14:57,510
5/24/19 14:57,523
5/24/19 14:57,511
5/24/19 14:57,526
5/24/19 14:57,518
5/24/19 14:57,518
5/24/19 14:57,525
5/24/19 14:57,510
5/24/19 14:57,523
5/24/19 14:57,508
5/24/19 14:57,504
5/24/19 14:57,505
5/24/19 14:57,489
5/24/19 14:57,498
5/24/19 14:57,486
5/24/19 14:57,486
5/24/19 14:57,495
5/24/19 14:57,487
5/24/19 14:57,502
5/24/19 14:57,494
5/24/19 14:57,499
5/24/19 14:57,504
5/24/19 14:57,493
5/24/19 14:57,507
5/24/19 14:57,497
5/24/19 14:57,502
5/24/19 14:57,505
5/24/19 14:57,498
5/24/19 14:57,510
5/24/19 14:57,500
5/24/19 14:57,524
5/24/19 14:57,501
5/24/19 14:57,478
5/24/19 14:57,482
5/24/19 14:57,473
5/24/19 14:57,482
5/24/19 14:57,496
5/24/19 14:57,490
5/24/19 14:57,506
5/24/19 14:57,493
5/24/19 14:57,500
5/24/19 14:57,503
5/24/19 14:57,499
5/24/19 14:57,511
5/24/19 14:57,503
5/24/19 14:57,513
5/24/19 14:57,517
5/24/19 14:57,507
5/24/19 14:57,522
5/24/19 14:57,510
5/24/19 14:57,517
5/24/19 14:57,519
5/24/19 14:57,508
5/24/19 14:57,519
5/24/19 14:57,506
5/24/19 14:57,518
5/24/19 14:57,517
5/24/19 14:57,510
5/24/19 14:57,524
5/24/19 14:57,511
5/24/19 14:57,522
5/24/19 14:57,521
5/24/19 14:57,515
5/24/19 14:57,525
5/24/19 14:57,510
5/24/19 14:57,519
5/24/19 14:57,509
5/24/19 14:57,503
5/24/19 14:57,509
5/24/19 14:57,492
5/24/19 14:57,498
5/24/19 14:57,491
5/24/19 14:57,488
5/24/19 14:57,497
5/24/19 14:57,485
5/24/19 14:57,498
5/24/19 14:57,494
5/24/19 14:57,493
5/24/19 14:57,506
5/24/19 14:57,492
5/24/19 14:57,504
5/24/19 14:57,500
5/24/19 14:57,499
5/24/19 14:57,506
5/24/19 14:57,494
5/24/19 14:57,510
5/24/19 14:57,518
5/24/19 14:57,491
5/24/19 14:57,489
5/24/19 14:57,471
5/24/19 14:57,486
5/24/19 14:57,483
5/24/19 14:57,491
5/24/19 14:57,502
5/24/19 14:57,492
5/24/19 14:57,507
5/24/19 14:57,497
5/24/19 14:57,498
5/24/19 14:57,509
5/24/19 14:57,498
5/24/19 14:57,513
5/24/19 14:57,505
5/24/19 14:57,510
5/24/19 14:57,518
5/24/19 14:57,507
5/24/19 14:57,523
5/24/19 14:57,509
5/24/19 14:57,515
5/24/19 14:57,519
5/24/19 14:57,509
5/24/19 14:57,520
5/24/19 14:57,505
5/24/19 14:57,514
5/24/19 14:57,522
5/24/19 14:57,510
5/24/19 14:57,523
5/24/19 14:57,516
5/24/19 14:57,519
5/24/19 14:57,522
5/24/19 14:57,513
5/24/19 14:57,525
5/24/19 14:57,512
5/24/19 14:57,514
5/24/19 14:57,510
5/24/19 14:57,494
5/24/19 14:57,503
5/24/19 14:57,488
5/24/19 14:57,489
5/24/19 14:57,492
5/24/19 14:57,482
5/24/19 14:57,496
5/24/19 14:57,488
5/24/19 14:57,499
5/24/19 14:57,501
5/24/19 14:57,494
5/24/19 14:57,509
5/24/19 14:57,497
5/24/19 14:57,503
5/24/19 14:57,506
5/24/19 14:57,499
5/24/19 14:57,509
5/24/19 14:57,501
5/24/19 14:57,518
5/24/19 14:57,493
5/24/19 14:57,479
5/24/19 14:57,484
5/24/19 14:57,473
5/24/19 14:57,489
5/24/19 14:57,494
5/24/19 14:57,492
5/24/19 14:57,507
5/24/19 14:57,493
5/24/19 14:57,501
5/24/19 14:57,502
5/24/19 14:57,499
5/24/19 14:57,513
5/24/19 14:57,502
5/24/19 14:57,515
5/24/19 14:57,514
5/24/19 14:57,510
5/24/19 14:57,520
5/24/19 14:57,508
5/24/19 14:57,520
5/24/19 14:57,514
5/24/19 14:57,509
5/24/19 14:57,516
5/24/19 14:57,506
5/24/19 14:57,518
5/24/19 14:57,515
5/24/19 14:57,510
5/24/19 14:57,523
5/24/19 14:57,510
5/24/19 14:57,525
5/24/19 14:57,519
5/24/19 14:57,518
5/24/19 14:57,526
5/24/19 14:57,513
5/24/19 14:57,522
5/24/19 14:57,510
5/24/19 14:57,503
5/24/19 14:57,504
5/24/19 14:57,486
5/24/19 14:57,495
5/24/19 14:57,483
5/24/19 14:57,487
5/24/19 14:57,497
5/24/19 14:57,486
5/24/19 14:57,501
5/24/19 14:57,494
5/24/19 14:57,497
5/24/19 14:57,505
5/24/19 14:57,492
5/24/19 14:57,507
5/24/19 14:57,499
5/24/19 14:57,500
5/24/19 14:57,507
5/24/19 14:57,497
5/24/19 14:57,506
5/24/19 14:57,515
5/24/19 14:57,497
5/24/19 14:57,490
5/24/19 14:57,473
5/24/19 14:57,486
5/24/19 14:57,479
5/24/19 14:57,493
5/24/19 14:57,502
5/24/19 14:57,493
5/24/19 14:57,506
5/24/19 14:57,495
5/24/19 14:57,501
5/24/19 14:57,506
5/24/19 14:57,498
5/24/19 14:57,515
5/24/19 14:57,505
5/24/19 14:57,513
5/24/19 14:57,518
5/24/19 14:57,508
5/24/19 14:57,521
5/24/19 14:57,510
5/24/19 14:57,516
5/24/19 14:57,516
5/24/19 14:57,507
5/24/19 14:57,519
5/24/19 14:57,506
5/24/19 14:57,515
5/24/19 14:57,516
5/24/19 14:57,509
5/24/19 14:57,522
5/24/19 14:57,513
5/24/19 14:57,520
5/24/19 14:57,522
5/24/19 14:57,516
5/24/19 14:57,528
5/24/19 14:57,514
5/24/19 14:57,518
5/24/19 14:57,509
5/24/19 14:57,498
5/24/19 14:57,503
5/24/19 14:57,488
5/24/19 14:57,497
5/24/19 14:57,492
5/24/19 14:57,484
5/24/19 14:57,498
5/24/19 14:57,485
5/24/19 14:57,497
5/24/19 14:57,497
5/24/19 14:57,495
5/24/19 14:57,506
5/24/19 14:57,495
5/24/19 14:57,505
5/24/19 14:57,502
5/24/19 14:57,499
5/24/19 14:57,510
5/24/19 14:57,497
5/24/19 14:57,507
5/24/19 14:57,522
5/24/19 14:57,498
5/24/19 14:57,489
5/24/19 14:57,470
5/24/19 14:57,477
5/24/19 14:57,477
5/24/19 14:57,486
5/24/19 14:57,504
5/24/19 14:57,498
5/24/19 14:57,504
5/24/19 14:57,500
5/24/19 14:57,499
5/24/19 14:57,508
5/24/19 14:57,498
5/24/19 14:57,510
5/24/19 14:57,506
5/24/19 14:57,508
5/24/19 14:57,517
5/24/19 14:57,505
5/24/19 14:57,520
5/24/19 14:57,513
5/24/19 14:57,516
5/24/19 14:57,523
5/24/19 14:57,508
5/24/19 14:57,521
5/24/19 14:57,510
5/24/19 14:57,509
5/24/19 14:57,517
5/24/19 14:57,508
5/24/19 14:57,525
5/24/19 14:57,516
5/24/19 14:57,519
5/24/19 14:57,525
5/24/19 14:57,514
5/24/19 14:57,525
5/24/19 14:57,515
5/24/19 14:57,514
5/24/19 14:57,513
5/24/19 14:57,495
5/24/19 14:57,502
5/24/19 14:57,489
5/24/19 14:57,492
5/24/19 14:57,492
5/24/19 14:57,483
5/24/19 14:57,497
5/24/19 14:57,488
5/24/19 14:57,494
5/24/19 14:57,500
5/24/19 14:57,491
5/24/19 14:57,507
5/24/19 14:57,496
5/24/19 14:57,502
5/24/19 14:57,505
5/24/19 14:57,497
5/24/19 14:57,510
5/24/19 14:57,499
5/24/19 14:57,527
5/24/19 14:57,502
5/24/19 14:57,480
5/24/19 14:57,486
5/24/19 14:57,473
5/24/19 14:57,484
5/24/19 14:57,494
5/24/19 14:57,491
5/24/19 14:57,501
5/24/19 14:57,491
5/24/19 14:57,501
5/24/19 14:57,503
5/24/19 14:57,497
5/24/19 14:57,510
5/24/19 14:57,502
5/24/19 14:57,512
5/24/19 14:57,514
5/24/19 14:57,509
5/24/19 14:57,523
5/24/19 14:57,511
5/24/19 14:57,520
5/24/19 14:57,514
5/24/19 14:57,509
5/24/19 14:57,521
5/24/19 14:57,508
5/24/19 14:57,517
5/24/19 14:57,514
5/24/19 14:57,512
5/24/19 14:57,525
5/24/19 14:57,509
5/24/19 14:57,522
5/24/19 14:57,519
5/24/19 14:57,516
5/24/19 14:57,525
5/24/19 14:57,513
5/24/19 14:57,521
5/24/19 14:57,511
5/24/19 14:57,500
5/24/19 14:57,506
5/24/19 14:57,487
5/24/19 14:57,497
5/24/19 14:57,488
5/24/19 14:57,486
5/24/19 14:57,496
5/24/19 14:57,486
5/24/19 14:57,500
5/24/19 14:57,493
5/24/19 14:57,496
5/24/19 14:57,504
5/24/19 14:57,493
5/24/19 14:57,506
5/24/19 14:57,499
5/24/19 14:57,499
5/24/19 14:57,507
5/24/19 14:57,496
5/24/19 14:57,506
5/24/19 14:57,521
5/24/19 14:57,505
5/24/19 14:57,493
5/24/19 14:57,475
5/24/19 14:57,484
5/24/19 14:57,476
5/24/19 14:57,487
5/24/19 14:57,499
5/24/19 14:57,490
5/24/19 14:57,505
5/24/19 14:57,495
5/24/19 14:57,497
5/24/19 14:57,506
5/24/19 14:57,500
5/24/19 14:57,514
5/24/19 14:57,504
5/24/19 14:57,511
5/24/19 14:57,516
5/24/19 14:57,507
5/24/19 14:57,520
5/24/19 14:57,509
5/24/19 14:57,516
5/24/19 14:57,520
5/24/19 14:57,510
5/24/19 14:57,520
5/24/19 14:57,509
5/24/19 14:57,515
5/24/19 14:57,518
5/24/19 14:57,509
5/24/19 14:57,523
5/24/19 14:57,512
5/24/19 14:57,521
5/24/19 14:57,523
5/24/19 14:57,515
5/24/19 14:57,525
5/24/19 14:57,513
5/24/19 14:57,517
5/24/19 14:57,514
5/24/19 14:57,498
5/24/19 14:57,506
5/24/19 14:57,488
5/24/19 14:57,494
5/24/19 14:57,491
5/24/19 14:57,485
5/24/19 14:57,496
5/24/19 14:57,485
5/24/19 14:57,497
5/24/19 14:57,498
5/24/19 14:57,493
5/24/19 14:57,505
5/24/19 14:57,493
5/24/19 14:57,502
5/24/19 14:57,503
5/24/19 14:57,500
5/24/19 14:57,511
5/24/19 14:57,498
5/24/19 14:57,507
5/24/19 14:57,528
5/24/19 14:57,497
5/24/19 14:57,491
5/24/19 14:57,472
5/24/19 14:57,481
5/24/19 14:57,480
5/24/19 14:57,485
5/24/19 14:57,501
5/24/19 14:57,494
5/24/19 14:57,506
5/24/19 14:57,500
5/24/19 14:57,498
5/24/19 14:57,509
5/24/19 14:57,498
5/24/19 14:57,513
5/24/19 14:57,507
5/24/19 14:57,508
5/24/19 14:57,517
5/24/19 14:57,506
5/24/19 14:57,521
5/24/19 14:57,514
5/24/19 14:57,513
5/24/19 14:57,519
5/24/19 14:57,504
5/24/19 14:57,519
5/24/19 14:57,511
5/24/19 14:57,512
5/24/19 14:57,518
5/24/19 14:57,507
5/24/19 14:57,521
5/24/19 14:57,514
5/24/19 14:57,518
5/24/19 14:57,526
5/24/19 14:57,513
5/24/19 14:57,526
5/24/19 14:57,517
5/24/19 14:57,514
5/24/19 14:57,516
5/24/19 14:57,496
5/24/19 14:57,505
5/24/19 14:57,492
5/24/19 14:57,491
5/24/19 14:57,494
5/24/19 14:57,484
5/24/19 14:57,496
5/24/19 14:57,488
5/24/19 14:57,493
5/24/19 14:57,499
5/24/19 14:57,492
5/24/19 14:57,505
5/24/19 14:57,497
5/24/19 14:57,503
5/24/19 14:57,505
5/24/19 14:57,496
5/24/19 14:57,508
5/24/19 14:57,497
5/24/19 14:57,509
5/24/19 14:57,520
5/24/19 14:57,489
5/24/19 14:57,490
5/24/19 14:57,471
5/24/19 14:57,482
5/24/19 14:57,487
5/24/19 14:57,485
5/24/19 14:57,504
5/24/19 14:57,493
5/24/19 14:57,503
5/24/19 14:57,503
5/24/19 14:57,496
5/24/19 14:57,511
5/24/19 14:57,501
5/24/19 14:57,511
5/24/19 14:57,511
5/24/19 14:57,505
5/24/19 14:57,520
5/24/19 14:57,508
5/24/19 14:57,514
5/24/19 14:57,516
5/24/19 14:57,511
5/24/19 14:57,520
5/24/19 14:57,508
5/24/19 14:57,518
5/24/19 14:57,514
5/24/19 14:57,509
5/24/19 14:57,522
5/24/19 14:57,511
5/24/19 14:57,524
5/24/19 14:57,520
5/24/19 14:57,518
5/24/19 14:57,527
5/24/19 14:57,513
5/24/19 14:57,523
5/24/19 14:57,517
5/24/19 14:57,509
5/24/19 14:57,509
5/24/19 14:57,492
5/24/19 14:57,499
5/24/19 14:57,490
5/24/19 14:57,486
5/24/19 14:57,496
5/24/19 14:57,482
5/24/19 14:57,497
5/24/19 14:57,491
5/24/19 14:57,493
5/24/19 15:06,520
5/24/19 15:06,518
5/24/19 15:06,510
5/24/19 15:06,512
5/24/19 15:06,517
5/24/19 15:06,506
5/24/19 15:06,519
5/24/19 15:06,507
5/24/19 15:06,510
5/24/19 15:06,516
5/24/19 15:06,507
5/24/19 15:06,520
5/24/19 15:06,513
5/24/19 15:06,517
5/24/19 15:06,523
5/24/19 15:06,509
5/24/19 15:06,525
5/24/19 15:06,513
5/24/19 15:06,511
5/24/19 15:06,512
5/24/19 15:06,496
5/24/19 15:06,504
5/24/19 15:06,490
5/24/19 15:06,494
5/24/19 15:06,497
5/24/19 15:06,487
5/24/19 15:06,500
5/24/19 15:06,489
5/24/19 15:06,498
5/24/19 15:06,501
5/24/19 15:06,492
5/24/19 15:06,507
5/24/19 15:06,494
5/24/19 15:06,502
5/24/19 15:06,505
5/24/19 15:06,498
5/24/19 15:06,507
5/24/19 15:06,497
5/24/19 15:06,529
5/24/19 15:06,503
5/24/19 15:06,482
5/24/19 15:06,487
5/24/19 15:06,474
5/24/19 15:06,484
5/24/19 15:06,492
5/24/19 15:06,494
5/24/19 15:06,507
5/24/19 15:06,493
5/24/19 15:06,500
5/24/19 15:06,501
5/24/19 15:06,499
5/24/19 15:06,514
5/24/19 15:06,503
5/24/19 15:06,512
5/24/19 15:06,511
5/24/19 15:06,508
5/24/19 15:06,518
5/24/19 15:06,508
5/24/19 15:06,519
5/24/19 15:06,514
5/24/19 15:06,510
5/24/19 15:06,517
5/24/19 15:06,506
5/24/19 15:06,516
5/24/19 15:06,513
5/24/19 15:06,510
5/24/19 15:06,522
5/24/19 15:06,510
5/24/19 15:06,521
5/24/19 15:06,516
5/24/19 15:06,515
5/24/19 15:06,524
5/24/19 15:06,512
5/24/19 15:06,523
5/24/19 15:06,513
5/24/19 15:06,505
5/24/19 15:06,507
5/24/19 15:06,492
5/24/19 15:06,501
5/24/19 15:06,491
5/24/19 15:06,490
5/24/19 15:06,494
5/24/19 15:06,487
5/24/19 15:06,500
5/24/19 15:06,492
5/24/19 15:06,496
5/24/19 15:06,503
5/24/19 15:06,492
5/24/19 15:06,507
5/24/19 15:06,499
5/24/19 15:06,502
5/24/19 15:06,507
5/24/19 15:06,496
5/24/19 15:06,515
5/24/19 15:06,515
5/24/19 15:06,495
5/24/19 15:06,489
5/24/19 15:06,474
5/24/19 15:06,488
5/24/19 15:06,482
5/24/19 15:06,496
5/24/19 15:06,503
5/24/19 15:06,496
5/24/19 15:06,506
5/24/19 15:06,493
5/24/19 15:06,500
5/24/19 15:06,506
5/24/19 15:06,499
5/24/19 15:06,512
5/24/19 15:06,504
5/24/19 15:06,511
5/24/19 15:06,514
5/24/19 15:06,509
5/24/19 15:06,521
5/24/19 15:06,509
5/24/19 15:06,516
5/24/19 15:06,514
5/24/19 15:06,507
5/24/19 15:06,520
5/24/19 15:06,509
5/24/19 15:06,516
5/24/19 15:06,518
5/24/19 15:06,510
5/24/19 15:06,523
5/24/19 15:06,511
5/24/19 15:06,522
5/24/19 15:06,520
5/24/19 15:06,514
5/24/19 15:06,524
5/24/19 15:06,507
5/24/19 15:06,514
5/24/19 15:06,506
5/24/19 15:06,496
5/24/19 15:06,502
5/24/19 15:06,488
5/24/19 15:06,496
5/24/19 15:06,491
5/24/19 15:06,488
5/24/19 15:06,501
5/24/19 15:06,488
5/24/19 15:06,498
5/24/19 15:06,498
5/24/19 15:06,495
5/24/19 15:06,506
5/24/19 15:06,495
5/24/19 15:06,508
5/24/19 15:06,501
5/24/19 15:06,499
5/24/19 15:06,509
5/24/19 15:06,498
5/24/19 15:06,529
5/24/19 15:06,496
5/24/19 15:06,484
5/24/19 15:06,488
5/24/19 15:06,475
5/24/19 15:06,488
5/24/19 15:06,488
5/24/19 15:06,493
5/24/19 15:06,502
5/24/19 15:06,495
5/24/19 15:06,507
5/24/19 15:06,496
5/24/19 15:06,502
5/24/19 15:06,511
5/24/19 15:06,502
5/24/19 15:06,516
5/24/19 15:06,509
5/24/19 15:06,512
5/24/19 15:06,518
5/24/19 15:06,508
5/24/19 15:06,522
5/24/19 15:06,511
5/24/19 15:06,511
5/24/19 15:06,515
5/24/19 15:06,505
5/24/19 15:06,520
5/24/19 15:06,506
5/24/19 15:06,516
5/24/19 15:06,521
5/24/19 15:06,509
5/24/19 15:06,524
5/24/19 15:06,514
5/24/19 15:06,519
5/24/19 15:06,521
5/24/19 15:06,511
5/24/19 15:06,523
5/24/19 15:06,508
5/24/19 15:06,509
5/24/19 15:06,505
5/24/19 15:06,490
5/24/19 15:06,501
5/24/19 15:06,485
5/24/19 15:06,494
5/24/19 15:06,492
5/24/19 15:06,487
5/24/19 15:06,500
5/24/19 15:06,490
5/24/19 15:06,498
5/24/19 15:06,498
5/24/19 15:06,492
5/24/19 15:06,506
5/24/19 15:06,497
5/24/19 15:06,506
5/24/19 15:06,505
5/24/19 15:06,499
5/24/19 15:06,515
5/24/19 15:06,513
5/24/19 15:06,497
5/24/19 15:06,487
5/24/19 15:06,477
5/24/19 15:06,488
5/24/19 15:06,480
5/24/19 15:06,501
5/24/19 15:06,500
5/24/19 15:06,497
5/24/19 15:06,507
5/24/19 15:06,493
5/24/19 15:06,504
5/24/19 15:06,497
5/24/19 15:06,499
5/24/19 15:06,512
5/24/19 15:06,500
5/24/19 15:06,515
5/24/19 15:06,512
5/24/19 15:06,510
5/24/19 15:06,520
5/24/19 15:06,510
5/24/19 15:06,521
5/24/19 15:06,513
5/24/19 15:06,513
5/24/19 15:06,521
5/24/19 15:06,506
5/24/19 15:06,517
5/24/19 15:06,513
5/24/19 15:06,515
5/24/19 15:06,521
5/24/19 15:06,510
5/24/19 15:06,524
5/24/19 15:06,515
5/24/19 15:06,513
5/24/19 15:06,521
5/24/19 15:06,510
5/24/19 15:06,518
5/24/19 15:06,503
5/24/19 15:06,501
5/24/19 15:06,501
5/24/19 15:06,487
5/24/19 15:06,499
5/24/19 15:06,488
5/24/19 15:06,490
5/24/19 15:06,496
5/24/19 15:06,488
5/24/19 15:06,502
5/24/19 15:06,495
5/24/19 15:06,499
5/24/19 15:06,505
5/24/19 15:06,495
5/24/19 15:06,507
5/24/19 15:06,499
5/24/19 15:06,504
5/24/19 15:06,506
5/24/19 15:06,497
5/24/19 15:06,519
5/24/19 15:06,511
5/24/19 15:06,495
5/24/19 15:06,485
5/24/19 15:06,473
5/24/19 15:06,489
5/24/19 15:06,483
5/24/19 15:06,498
5/24/19 15:06,502
5/24/19 15:06,494
5/24/19 15:06,506
5/24/19 15:06,492
5/24/19 15:06,500
5/24/19 15:06,504
5/24/19 15:06,500
5/24/19 15:06,513
5/24/19 15:06,506
5/24/19 15:06,516
5/24/19 15:06,517
5/24/19 15:06,512
5/24/19 15:06,523
5/24/19 15:06,508
5/24/19 15:06,516
5/24/19 15:06,514
5/24/19 15:06,510
5/24/19 15:06,519
5/24/19 15:06,507
5/24/19 15:06,516
5/24/19 15:06,514
5/24/19 15:06,511
5/24/19 15:06,520
5/24/19 15:06,507
5/24/19 15:06,522
5/24/19 15:06,517
5/24/19 15:06,514
5/24/19 15:06,523
5/24/19 15:06,509
5/24/19 15:06,516
5/24/19 15:06,504
5/24/19 15:06,498
5/24/19 15:06,503
5/24/19 15:06,488
5/24/19 15:06,497
5/24/19 15:06,494
5/24/19 15:06,491
5/24/19 15:06,498
5/24/19 15:06,488
5/24/19 15:06,501
5/24/19 15:06,495
5/24/19 15:06,495
5/24/19 15:06,503
5/24/19 15:06,494
5/24/19 15:06,507
5/24/19 15:06,498
5/24/19 15:06,498
5/24/19 15:06,507
5/24/19 15:06,499
5/24/19 15:06,524
5/24/19 15:06,509
5/24/19 15:06,492
5/24/19 15:06,488
5/24/19 15:06,473
5/24/19 15:06,486
5/24/19 15:06,484
5/24/19 15:06,495
5/24/19 15:06,504
5/24/19 15:06,493
5/24/19 15:06,507
5/24/19 15:06,496
5/24/19 15:06,501
5/24/19 15:06,506
5/24/19 15:06,500
5/24/19 15:06,514
5/24/19 15:06,504
5/24/19 15:06,511
5/24/19 15:06,517
5/24/19 15:06,508
5/24/19 15:06,520
5/24/19 15:06,505
5/24/19 15:06,515
5/24/19 15:06,516
5/24/19 15:06,507
5/24/19 15:06,520
5/24/19 15:06,506
5/24/19 15:06,516
5/24/19 15:06,516
5/24/19 15:06,509
5/24/19 15:06,523
5/24/19 15:06,510
5/24/19 15:06,521
5/24/19 15:06,520
5/24/19 15:06,516
5/24/19 15:06,525
5/24/19 15:06,510
5/24/19 15:06,515
5/24/19 15:06,508
5/24/19 15:06,493
5/24/19 15:06,502
5/24/19 15:06,486
5/24/19 15:06,495
5/24/19 15:06,493
5/24/19 15:06,486
5/24/19 15:06,498
5/24/19 15:06,490
5/24/19 15:06,499
5/24/19 15:06,495
5/24/19 15:06,493
5/24/19 15:06,508
5/24/19 15:06,496
5/24/19 15:06,505
5/24/19 15:06,503
5/24/19 15:06,500
5/24/19 15:06,508
5/24/19 15:06,497
5/24/19 15:06,508
5/24/19 15:06,527
5/24/19 15:06,501
5/24/19 15:06,493
5/24/19 15:06,475
5/24/19 15:06,485
5/24/19 15:06,482
5/24/19 15:06,489
5/24/19 15:06,504
5/24/19 15:06,493
5/24/19 15:06,502
5/24/19 15:06,495
5/24/19 15:06,496
5/24/19 15:06,506
5/24/19 15:06,495
5/24/19 15:06,507
5/24/19 15:06,505
5/24/19 15:06,510
5/24/19 15:06,518
5/24/19 15:06,507
5/24/19 15:06,521
5/24/19 15:06,513
5/24/19 15:06,515
5/24/19 15:06,519
5/24/19 15:06,506
5/24/19 15:06,520
5/24/19 15:06,511
5/24/19 15:06,515
5/24/19 15:06,520
5/24/19 15:06,508
5/24/19 15:06,523
5/24/19 15:06,513
5/24/19 15:06,518
5/24/19 15:06,522
5/24/19 15:06,513
5/24/19 15:06,522
5/24/19 15:06,511
5/24/19 15:06,516
5/24/19 15:06,511
5/24/19 15:06,496
5/24/19 15:06,506
5/24/19 15:06,490
5/24/19 15:06,494
5/24/19 15:06,496
5/24/19 15:06,486
5/24/19 15:06,499
5/24/19 15:06,488
5/24/19 15:06,497
5/24/19 15:06,499
5/24/19 15:06,493
5/24/19 15:06,504
5/24/19 15:06,495
5/24/19 15:06,505
5/24/19 15:06,504
5/24/19 15:06,499
5/24/19 15:06,510
5/24/19 15:06,498
5/24/19 15:06,510
5/24/19 15:06,519
5/24/19 15:06,490
5/24/19 15:06,491
5/24/19 15:06,474
5/24/19 15:06,483
5/24/19 15:06,485
5/24/19 15:06,489
5/24/19 15:06,504
5/24/19 15:06,490
5/24/19 15:06,505
5/24/19 15:06,500
5/24/19 15:06,499
5/24/19 15:06,509
5/24/19 15:06,500
5/24/19 15:06,512
5/24/19 15:06,509
5/24/19 15:06,508
5/24/19 15:06,518
5/24/19 15:06,506
5/24/19 15:06,519
5/24/19 15:06,513
5/24/19 15:06,513
5/24/19 15:06,520
5/24/19 15:06,507
5/24/19 15:06,518
5/24/19 15:06,510
5/24/19 15:06,509
5/24/19 15:06,518
5/24/19 15:06,509
5/24/19 15:06,523
5/24/19 15:06,511
5/24/19 15:06,517
5/24/19 15:06,522
5/24/19 15:06,513
5/24/19 15:06,525
5/24/19 15:06,513
5/24/19 15:06,510
5/24/19 15:06,511
5/24/19 15:06,494
5/24/19 15:06,502
5/24/19 15:06,491
5/24/19 15:06,491
5/24/19 15:06,494
5/24/19 15:06,486
5/24/19 15:06,501
5/24/19 15:06,490
5/24/19 15:06,496
5/24/19 15:06,500
5/24/19 15:06,492
5/24/19 15:06,506
5/24/19 15:06,495
5/24/19 15:06,503
5/24/19 15:06,506
5/24/19 15:06,498
5/24/19 15:06,509
5/24/19 15:06,499
5/24/19 15:06,519
5/24/19 15:06,514
5/24/19 15:06,488
5/24/19 15:06,491
5/24/19 15:06,474
5/24/19 15:06,482
5/24/19 15:06,488
5/24/19 15:06,489
5/24/19 15:06,510
5/24/19 15:06,493
5/24/19 15:06,502
5/24/19 15:06,498
5/24/19 15:06,492
5/24/19 15:06,507
5/24/19 15:06,499
5/24/19 15:06,511
5/24/19 15:06,514
5/24/19 15:06,510
5/24/19 15:06,522
5/24/19 15:06,508
5/24/19 15:06,517
5/24/19 15:06,514
5/24/19 15:06,509
5/24/19 15:06,521
5/24/19 15:06,506
5/24/19 15:06,518
5/24/19 15:06,512
5/24/19 15:06,509
5/24/19 15:06,521
5/24/19 15:06,509
5/24/19 15:06,522
5/24/19 15:06,516
5/24/19 15:06,514
5/24/19 15:06,523
5/24/19 15:06,508
5/24/19 15:06,521
5/24/19 15:06,514
5/24/19 15:06,507
5/24/19 15:06,509
5/24/19 15:06,493
5/24/19 15:06,502
5/24/19 15:06,492
5/24/19 15:06,490
5/24/19 15:06,497
5/24/19 15:06,486
5/24/19 15:06,499
5/24/19 15:06,491
5/24/19 15:06,494
5/24/19 15:06,504
5/24/19 15:06,493
5/24/19 15:06,504
5/24/19 15:06,498
5/24/19 15:06,501
5/24/19 15:06,506
5/24/19 15:06,497
5/24/19 15:06,508
5/24/19 15:06,511
5/24/19 15:06,513
5/24/19 15:06,495
5/24/19 15:06,478
5/24/19 15:06,485
5/24/19 15:06,476
5/24/19 15:06,487
5/24/19 15:06,500
5/24/19 15:06,494
5/24/19 15:06,507
5/24/19 15:06,494
5/24/19 15:06,501
5/24/19 15:06,506
5/24/19 15:06,498
5/24/19 15:06,511
5/24/19 15:06,502
5/24/19 15:06,510
5/24/19 15:06,514
5/24/19 15:06,506
5/24/19 15:06,520
5/24/19 15:06,509
5/24/19 15:06,516
5/24/19 15:06,517
5/24/19 15:06,507
5/24/19 15:06,519
5/24/19 15:06,506
5/24/19 15:06,515
5/24/19 15:06,515
5/24/19 15:06,510
5/24/19 15:06,521
5/24/19 15:06,511
5/24/19 15:06,518
5/24/19 15:06,519
5/24/19 15:06,515
5/24/19 15:06,525
5/24/19 15:06,514
5/24/19 15:06,520
5/24/19 15:06,511
5/24/19 15:06,500
5/24/19 15:06,506
5/24/19 15:06,490
5/24/19 15:06,496
5/24/19 15:06,490
5/24/19 15:06,487
5/24/19 15:06,499
5/24/19 15:06,488
5/24/19 15:06,501
5/24/19 15:06,498
5/24/19 15:06,496
5/24/19 15:06,506
5/24/19 15:06,491
5/24/19 15:06,505
5/24/19 15:06,500
5/24/19 15:06,499
5/24/19 15:15,506
5/24/19 15:15,507
5/24/19 15:15,517
5/24/19 15:15,515
5/24/19 15:15,508
5/24/19 15:15,518
5/24/19 15:15,507
5/24/19 15:15,518
5/24/19 15:15,513
5/24/19 15:15,506
5/24/19 15:15,519
5/24/19 15:15,505
5/24/19 15:15,518
5/24/19 15:15,513
5/24/19 15:15,510
5/24/19 15:15,518
5/24/19 15:15,505
5/24/19 15:15,516
5/24/19 15:15,515
5/24/19 15:15,513
5/24/19 15:15,519
5/24/19 15:15,502
5/24/19 15:15,509
5/24/19 15:15,498
5/24/19 15:15,494
5/24/19 15:15,500
5/24/19 15:15,490
5/24/19 15:15,499
5/24/19 15:15,492
5/24/19 15:15,495
5/24/19 15:15,501
5/24/19 15:15,489
5/24/19 15:15,504
5/24/19 15:15,498
5/24/19 15:15,499
5/24/19 15:15,506
5/24/19 15:15,496
5/24/19 15:15,507
5/24/19 15:15,496
5/24/19 15:15,499
5/24/19 15:15,507
5/24/19 15:15,521
5/24/19 15:15,508
5/24/19 15:15,488
5/24/19 15:15,480
5/24/19 15:15,485
5/24/19 15:15,476
5/24/19 15:15,496
5/24/19 15:15,493
5/24/19 15:15,501
5/24/19 15:15,505
5/24/19 15:15,495
5/24/19 15:15,509
5/24/19 15:15,501
5/24/19 15:15,506
5/24/19 15:15,512
5/24/19 15:15,502
5/24/19 15:15,515
5/24/19 15:15,507
5/24/19 15:15,510
5/24/19 15:15,514
5/24/19 15:15,506
5/24/19 15:15,520
5/24/19 15:15,511
5/24/19 15:15,514
5/24/19 15:15,516
5/24/19 15:15,507
5/24/19 15:15,517
5/24/19 15:15,506
5/24/19 15:15,515
5/24/19 15:15,516
5/24/19 15:15,510
5/24/19 15:15,520
5/24/19 15:15,512
5/24/19 15:15,520
5/24/19 15:15,520
5/24/19 15:15,511
5/24/19 15:15,519
5/24/19 15:15,506
5/24/19 15:15,509
5/24/19 15:15,504
5/24/19 15:15,493
5/24/19 15:15,499
5/24/19 15:15,487
5/24/19 15:15,496
5/24/19 15:15,495
5/24/19 15:15,491
5/24/19 15:15,502
5/24/19 15:15,490
5/24/19 15:15,499
5/24/19 15:15,500
5/24/19 15:15,494
5/24/19 15:15,505
5/24/19 15:15,495
5/24/19 15:15,506
5/24/19 15:15,502
5/24/19 15:15,499
5/24/19 15:15,510
5/24/19 15:15,502
5/24/19 15:15,522
5/24/19 15:15,497
5/24/19 15:15,483
5/24/19 15:15,486
5/24/19 15:15,474
5/24/19 15:15,494
5/24/19 15:15,494
5/24/19 15:15,495
5/24/19 15:15,508
5/24/19 15:15,494
5/24/19 15:15,505
5/24/19 15:15,502
5/24/19 15:15,500
5/24/19 15:15,512
5/24/19 15:15,500
5/24/19 15:15,512
5/24/19 15:15,506
5/24/19 15:15,506
5/24/19 15:15,516
5/24/19 15:15,506
5/24/19 15:15,520
5/24/19 15:15,511
5/24/19 15:15,510
5/24/19 15:15,517
5/24/19 15:15,506
5/24/19 15:15,521
5/24/19 15:15,510
5/24/19 15:15,511
5/24/19 15:15,521
5/24/19 15:15,508
5/24/19 15:15,521
5/24/19 15:15,514
5/24/19 15:15,513
5/24/19 15:15,521
5/24/19 15:15,509
5/24/19 15:15,521
5/24/19 15:15,510
5/24/19 15:15,506
5/24/19 15:15,503
5/24/19 15:15,491
5/24/19 15:15,500
5/24/19 15:15,491
5/24/19 15:15,494
5/24/19 15:15,499
5/24/19 15:15,487
5/24/19 15:15,502
5/24/19 15:15,493
5/24/19 15:15,499
5/24/19 15:15,502
5/24/19 15:15,492
5/24/19 15:15,506
5/24/19 15:15,499
5/24/19 15:15,503
5/24/19 15:15,505
5/24/19 15:15,500
5/24/19 15:15,511
5/24/19 15:15,517
5/24/19 15:15,511
5/24/19 15:15,497
5/24/19 15:15,479
5/24/19 15:15,486
5/24/19 15:15,477
5/24/19 15:15,489
5/24/19 15:15,496
5/24/19 15:15,491
5/24/19 15:15,502
5/24/19 15:15,495
5/24/19 15:15,505
5/24/19 15:15,507
5/24/19 15:15,500
5/24/19 15:15,512
5/24/19 15:15,502
5/24/19 15:15,511
5/24/19 15:15,513
5/24/19 15:15,504
5/24/19 15:15,517
5/24/19 15:15,506
5/24/19 15:15,515
5/24/19 15:15,515
5/24/19 15:15,508
5/24/19 15:15,521
5/24/19 15:15,507
5/24/19 15:15,516
5/24/19 15:15,511
5/24/19 15:15,508
5/24/19 15:15,520
5/24/19 15:15,509
5/24/19 15:15,519
5/24/19 15:15,518
5/24/19 15:15,511
5/24/19 15:15,524
5/24/19 15:15,512
5/24/19 15:15,520
5/24/19 15:15,511
5/24/19 15:15,503
5/24/19 15:15,510
5/24/19 15:15,491
5/24/19 15:15,501
5/24/19 15:15,494
5/24/19 15:15,488
5/24/19 15:15,500
5/24/19 15:15,486
5/24/19 15:15,499
5/24/19 15:15,496
5/24/19 15:15,493
5/24/19 15:15,506
5/24/19 15:15,494
5/24/19 15:15,506
5/24/19 15:15,501
5/24/19 15:15,499
5/24/19 15:15,508
5/24/19 15:15,498
5/24/19 15:15,507
5/24/19 15:15,501
5/24/19 15:15,526
5/24/19 15:15,509
5/24/19 15:15,484
5/24/19 15:15,489
5/24/19 15:15,478
5/24/19 15:15,481
5/24/19 15:15,495
5/24/19 15:15,492
5/24/19 15:15,510
5/24/19 15:15,500
5/24/19 15:15,499
5/24/19 15:15,502
5/24/19 15:15,493
5/24/19 15:15,506
5/24/19 15:15,501
5/24/19 15:15,506
5/24/19 15:15,513
5/24/19 15:15,503
5/24/19 15:15,519
5/24/19 15:15,510
5/24/19 15:15,512
5/24/19 15:15,517
5/24/19 15:15,506
5/24/19 15:15,520
5/24/19 15:15,509
5/24/19 15:15,513
5/24/19 15:15,516
5/24/19 15:15,506
5/24/19 15:15,521
5/24/19 15:15,509
5/24/19 15:15,517
5/24/19 15:15,518
5/24/19 15:15,511
5/24/19 15:15,525
5/24/19 15:15,513
5/24/19 15:15,519
5/24/19 15:15,517
5/24/19 15:15,505
5/24/19 15:15,513
5/24/19 15:15,496
5/24/19 15:15,499
5/24/19 15:15,497
5/24/19 15:15,489
5/24/19 15:15,500
5/24/19 15:15,487
5/24/19 15:15,497
5/24/19 15:15,497
5/24/19 15:15,492
5/24/19 15:15,504
5/24/19 15:15,490
5/24/19 15:15,504
5/24/19 15:15,503
5/24/19 15:15,497
5/24/19 15:15,509
5/24/19 15:15,495
5/24/19 15:15,508
5/24/19 15:15,505
5/24/19 15:15,500
5/24/19 15:15,530
5/24/19 15:15,492
5/24/19 15:15,488
5/24/19 15:15,481
5/24/19 15:15,477
5/24/19 15:15,491
5/24/19 15:15,484
5/24/19 15:15,501
5/24/19 15:15,500
5/24/19 15:15,495
5/24/19 15:15,507
5/24/19 15:15,495
5/24/19 15:15,507
5/24/19 15:15,507
5/24/19 15:15,503
5/24/19 15:15,515
5/24/19 15:15,502
5/24/19 15:15,516
5/24/19 15:15,511
5/24/19 15:15,509
5/24/19 15:15,518
5/24/19 15:15,507
5/24/19 15:15,517
5/24/19 15:15,509
5/24/19 15:15,510
5/24/19 15:15,520
5/24/19 15:15,507
5/24/19 15:15,517
5/24/19 15:15,512
5/24/19 15:15,512
5/24/19 15:15,518
5/24/19 15:15,506
5/24/19 15:15,520
5/24/19 15:15,514
5/24/19 15:15,516
5/24/19 15:15,522
5/24/19 15:15,505
5/24/19 15:15,516
5/24/19 15:15,502
5/24/19 15:15,499
5/24/19 15:15,501
5/24/19 15:15,488
5/24/19 15:15,498
5/24/19 15:15,490
5/24/19 15:15,493
5/24/19 15:15,499
5/24/19 15:15,491
5/24/19 15:15,503
5/24/19 15:15,495
5/24/19 15:15,498
5/24/19 15:15,504
5/24/19 15:15,495
5/24/19 15:15,507
5/24/19 15:15,498
5/24/19 15:15,501
5/24/19 15:15,501
5/24/19 15:15,494
5/24/19 15:15,513
5/24/19 15:15,517
5/24/19 15:15,499
5/24/19 15:15,493
5/24/19 15:15,476
5/24/19 15:15,487
5/24/19 15:15,483
5/24/19 15:15,497
5/24/19 15:15,505
5/24/19 15:15,495
5/24/19 15:15,507
5/24/19 15:15,495
5/24/19 15:15,500
5/24/19 15:15,503
5/24/19 15:15,499
5/24/19 15:15,513
5/24/19 15:15,500
5/24/19 15:15,510
5/24/19 15:15,515
5/24/19 15:15,511
5/24/19 15:15,521
5/24/19 15:15,507
5/24/19 15:15,517
5/24/19 15:15,514
5/24/19 15:15,506
5/24/19 15:15,520
5/24/19 15:15,506
5/24/19 15:15,514
5/24/19 15:15,515
5/24/19 15:15,509
5/24/19 15:15,520
5/24/19 15:15,508
5/24/19 15:15,519
5/24/19 15:15,518
5/24/19 15:15,513
5/24/19 15:15,522
5/24/19 15:15,511
5/24/19 15:15,517
5/24/19 15:15,506
5/24/19 15:15,499
5/24/19 15:15,506
5/24/19 15:15,491
5/24/19 15:15,499
5/24/19 15:15,493
5/24/19 15:15,491
5/24/19 15:15,499
5/24/19 15:15,490
5/24/19 15:15,500
5/24/19 15:15,496
5/24/19 15:15,494
5/24/19 15:15,503
5/24/19 15:15,492
5/24/19 15:15,505
5/24/19 15:15,501
5/24/19 15:15,499
5/24/19 15:15,509
5/24/19 15:15,498
5/24/19 15:15,531
5/24/19 15:15,507
5/24/19 15:15,492
5/24/19 15:15,491
5/24/19 15:15,473
5/24/19 15:15,484
5/24/19 15:15,487
5/24/19 15:15,492
5/24/19 15:15,505
5/24/19 15:15,494
5/24/19 15:15,506
5/24/19 15:15,498
5/24/19 15:15,498
5/24/19 15:15,507
5/24/19 15:15,497
5/24/19 15:15,515
5/24/19 15:15,505
5/24/19 15:15,510
5/24/19 15:15,513
5/24/19 15:15,507
5/24/19 15:15,520
5/24/19 15:15,511
5/24/19 15:15,515
5/24/19 15:15,518
5/24/19 15:15,508
5/24/19 15:15,522
5/24/19 15:15,509
5/24/19 15:15,513
5/24/19 15:15,517
5/24/19 15:15,508
5/24/19 15:15,520
5/24/19 15:15,510
5/24/19 15:15,516
5/24/19 15:15,520
5/24/19 15:15,512
5/24/19 15:15,526
5/24/19 15:15,508
5/24/19 15:15,511
5/24/19 15:15,509
5/24/19 15:15,496
5/24/19 15:15,502
5/24/19 15:15,490
5/24/19 15:15,492
5/24/19 15:15,495
5/24/19 15:15,488
5/24/19 15:15,501
5/24/19 15:15,490
5/24/19 15:15,498
5/24/19 15:15,502
5/24/19 15:15,494
5/24/19 15:15,510
5/24/19 15:15,496
5/24/19 15:15,502
5/24/19 15:15,503
5/24/19 15:15,499
5/24/19 15:15,509
5/24/19 15:15,496
5/24/19 15:15,528
5/24/19 15:15,499
5/24/19 15:15,481
5/24/19 15:15,486
5/24/19 15:15,474
5/24/19 15:15,490
5/24/19 15:15,495
5/24/19 15:15,496
5/24/19 15:15,509
5/24/19 15:15,495
5/24/19 15:15,501
5/24/19 15:15,500
5/24/19 15:15,496
5/24/19 15:15,507
5/24/19 15:15,499
5/24/19 15:15,513
5/24/19 15:15,508
5/24/19 15:15,508
5/24/19 15:15,520
5/24/19 15:15,508
5/24/19 15:15,519
5/24/19 15:15,514
5/24/19 15:15,509
5/24/19 15:15,519
5/24/19 15:15,505
5/24/19 15:15,518
5/24/19 15:15,513
5/24/19 15:15,511
5/24/19 15:15,520
5/24/19 15:15,509
5/24/19 15:15,521
5/24/19 15:15,513
5/24/19 15:15,514
5/24/19 15:15,523
5/24/19 15:15,508
5/24/19 15:15,520
5/24/19 15:15,511
5/24/19 15:15,508
5/24/19 15:15,509
5/24/19 15:15,493
5/24/19 15:15,501
5/24/19 15:15,488
5/24/19 15:15,492
5/24/19 15:15,498
5/24/19 15:15,488
5/24/19 15:15,501
5/24/19 15:15,495
5/24/19 15:15,497
5/24/19 15:15,501
5/24/19 15:15,493
5/24/19 15:15,506
5/24/19 15:15,499
5/24/19 15:15,503
5/24/19 15:15,507
5/24/19 15:15,497
5/24/19 15:15,509
5/24/19 15:15,500
5/24/19 15:15,503
5/24/19 15:15,530
5/24/19 15:15,496
5/24/19 15:15,497
5/24/19 15:15,480
5/24/19 15:15,479
5/24/19 15:15,486
5/24/19 15:15,485
5/24/19 15:15,503
5/24/19 15:15,494
5/24/19 15:15,501
5/24/19 15:15,504
5/24/19 15:15,495
5/24/19 15:15,507
5/24/19 15:15,499
5/24/19 15:15,506
5/24/19 15:15,509
5/24/19 15:15,502
5/24/19 15:15,517
5/24/19 15:15,503
5/24/19 15:15,515
5/24/19 15:15,517
5/24/19 15:15,510
5/24/19 15:15,521
5/24/19 15:15,509
5/24/19 15:15,516
5/24/19 15:15,516
5/24/19 15:15,511
5/24/19 15:15,518
5/24/19 15:15,508
5/24/19 15:15,514
5/24/19 15:15,514
5/24/19 15:15,511
5/24/19 15:15,523
5/24/19 15:15,510
5/24/19 15:15,520
5/24/19 15:15,520
5/24/19 15:15,513
5/24/19 15:15,518
5/24/19 15:15,499
5/24/19 15:15,503
5/24/19 15:15,498
5/24/19 15:15,491
5/24/19 15:15,496
5/24/19 15:15,486
5/24/19 15:15,497
5/24/19 15:15,493
5/24/19 15:15,490
5/24/19 15:15,503
5/24/19 15:15,493
5/24/19 15:15,503
5/24/19 15:15,500
5/24/19 15:15,498
5/24/19 15:15,507
5/24/19 15:15,495
5/24/19 15:15,506
5/24/19 15:15,502
5/24/19 15:15,502
5/24/19 15:15,507
5/24/19 15:15,505
5/24/19 15:15,524
5/24/19 15:15,494
5/24/19 15:15,479
5/24/19 15:15,485
5/24/19 15:15,475
5/24/19 15:15,492
5/24/19 15:15,494
5/24/19 15:15,497
5/24/19 15:15,503
5/24/19 15:15,493
5/24/19 15:15,507
5/24/19 15:15,499
5/24/19 15:15,502
5/24/19 15:15,509
5/24/19 15:15,500
5/24/19 15:15,515
5/24/19 15:15,508
5/24/19 15:15,513
5/24/19 15:15,518
5/24/19 15:15,507
5/24/19 15:15,521
5/24/19 15:15,510
5/24/19 15:15,511
5/24/19 15:15,513
5/24/19 15:15,503
5/24/19 15:15,517
5/24/19 15:15,509
5/24/19 15:15,516
5/24/19 15:15,519
5/24/19 15:15,509
5/24/19 15:15,522
5/24/19 15:15,513
5/24/19 15:15,519
5/24/19 15:15,520
5/24/19 15:15,511
5/24/19 15:15,521
5/24/19 15:15,507
5/24/19 15:15,510
5/24/19 15:15,506
5/24/19 15:15,494
5/24/19 15:15,503
5/24/19 15:24,514
5/24/19 15:24,514
5/24/19 15:24,499
5/24/19 15:24,506
5/24/19 15:24,495
5/24/19 15:24,492
5/24/19 15:24,497
5/24/19 15:24,486
5/24/19 15:24,498
5/24/19 15:24,493
5/24/19 15:24,492
5/24/19 15:24,498
5/24/19 15:24,488
5/24/19 15:24,502
5/24/19 15:24,496
5/24/19 15:24,498
5/24/19 15:24,505
5/24/19 15:24,497
5/24/19 15:24,508
5/24/19 15:24,501
5/24/19 15:24,503
5/24/19 15:24,510
5/24/19 15:24,498
5/24/19 15:24,509
5/24/19 15:24,502
5/24/19 15:24,524
5/24/19 15:24,507
5/24/19 15:24,486
5/24/19 15:24,488
5/24/19 15:24,476
5/24/19 15:24,481
5/24/19 15:24,497
5/24/19 15:24,493
5/24/19 15:24,506
5/24/19 15:24,498
5/24/19 15:24,503
5/24/19 15:24,506
5/24/19 15:24,494
5/24/19 15:24,509
5/24/19 15:24,497
5/24/19 15:24,505
5/24/19 15:24,513
5/24/19 15:24,503
5/24/19 15:24,518
5/24/19 15:24,508
5/24/19 15:24,513
5/24/19 15:24,518
5/24/19 15:24,509
5/24/19 15:24,522
5/24/19 15:24,508
5/24/19 15:24,513
5/24/19 15:24,513
5/24/19 15:24,502
5/24/19 15:24,521
5/24/19 15:24,506
5/24/19 15:24,517
5/24/19 15:24,516
5/24/19 15:24,510
5/24/19 15:24,523
5/24/19 15:24,510
5/24/19 15:24,517
5/24/19 15:24,516
5/24/19 15:24,508
5/24/19 15:24,513
5/24/19 15:24,498
5/24/19 15:24,503
5/24/19 15:24,499
5/24/19 15:24,488
5/24/19 15:24,502
5/24/19 15:24,488
5/24/19 15:24,498
5/24/19 15:24,496
5/24/19 15:24,494
5/24/19 15:24,505
5/24/19 15:24,493
5/24/19 15:24,503
5/24/19 15:24,500
5/24/19 15:24,496
5/24/19 15:24,507
5/24/19 15:24,496
5/24/19 15:24,507
5/24/19 15:24,500
5/24/19 15:24,498
5/24/19 15:24,511
5/24/19 15:24,496
5/24/19 15:24,507
5/24/19 15:24,523
5/24/19 15:24,507
5/24/19 15:24,503
5/24/19 15:24,480
5/24/19 15:24,485
5/24/19 15:24,482
5/24/19 15:24,482
5/24/19 15:24,502
5/24/19 15:24,490
5/24/19 15:24,506
5/24/19 15:24,502
5/24/19 15:24,499
5/24/19 15:24,508
5/24/19 15:24,499
5/24/19 15:24,511
5/24/19 15:24,505
5/24/19 15:24,504
5/24/19 15:24,515
5/24/19 15:24,502
5/24/19 15:24,518
5/24/19 15:24,510
5/24/19 15:24,512
5/24/19 15:24,519
5/24/19 15:24,506
5/24/19 15:24,519
5/24/19 15:24,509
5/24/19 15:24,509
5/24/19 15:24,513
5/24/19 15:24,501
5/24/19 15:24,518
5/24/19 15:24,510
5/24/19 15:24,513
5/24/19 15:24,519
5/24/19 15:24,510
5/24/19 15:24,525
5/24/19 15:24,514
5/24/19 15:24,515
5/24/19 15:24,520
5/24/19 15:24,506
5/24/19 15:24,511
5/24/19 15:24,497
5/24/19 15:24,497
5/24/19 15:24,498
5/24/19 15:24,486
5/24/19 15:24,498
5/24/19 15:24,487
5/24/19 15:24,495
5/24/19 15:24,501
5/24/19 15:24,492
5/24/19 15:24,505
5/24/19 15:24,496
5/24/19 15:24,502
5/24/19 15:24,502
5/24/19 15:24,496
5/24/19 15:24,509
5/24/19 15:24,498
5/24/19 15:24,503
5/24/19 15:24,506
5/24/19 15:24,497
5/24/19 15:24,508
5/24/19 15:24,498
5/24/19 15:24,503
5/24/19 15:24,530
5/24/19 15:24,500
5/24/19 15:24,500
5/24/19 15:24,480
5/24/19 15:24,484
5/24/19 15:24,488
5/24/19 15:24,486
5/24/19 15:24,501
5/24/19 15:24,492
5/24/19 15:24,505
5/24/19 15:24,500
5/24/19 15:24,501
5/24/19 15:24,509
5/24/19 15:24,497
5/24/19 15:24,512
5/24/19 15:24,506
5/24/19 15:24,505
5/24/19 15:24,516
5/24/19 15:24,505
5/24/19 15:24,516
5/24/19 15:24,511
5/24/19 15:24,507
5/24/19 15:24,519
5/24/19 15:24,505
5/24/19 15:24,515
5/24/19 15:24,510
5/24/19 15:24,512
5/24/19 15:24,522
5/24/19 15:24,508
5/24/19 15:24,519
5/24/19 15:24,513
5/24/19 15:24,513
5/24/19 15:24,522
5/24/19 15:24,507
5/24/19 15:24,522
5/24/19 15:24,514
5/24/19 15:24,506
5/24/19 15:24,515
5/24/19 15:24,500
5/24/19 15:24,509
5/24/19 15:24,499
5/24/19 15:24,495
5/24/19 15:24,500
5/24/19 15:24,489
5/24/19 15:24,500
5/24/19 15:24,490
5/24/19 15:24,494
5/24/19 15:24,502
5/24/19 15:24,492
5/24/19 15:24,506
5/24/19 15:24,498
5/24/19 15:24,497
5/24/19 15:24,507
5/24/19 15:24,495
5/24/19 15:24,510
5/24/19 15:24,500
5/24/19 15:24,502
5/24/19 15:24,507
5/24/19 15:24,494
5/24/19 15:24,534
5/24/19 15:24,498
5/24/19 15:24,493
5/24/19 15:24,488
5/24/19 15:24,474
5/24/19 15:24,490
5/24/19 15:24,484
5/24/19 15:24,500
5/24/19 15:24,506
5/24/19 15:24,498
5/24/19 15:24,508
5/24/19 15:24,495
5/24/19 15:24,501
5/24/19 15:24,505
5/24/19 15:24,499
5/24/19 15:24,511
5/24/19 15:24,504
5/24/19 15:24,513
5/24/19 15:24,516
5/24/19 15:24,507
5/24/19 15:24,522
5/24/19 15:24,508
5/24/19 15:24,515
5/24/19 15:24,510
5/24/19 15:24,506
5/24/19 15:24,519
5/24/19 15:24,506
5/24/19 15:24,515
5/24/19 15:24,514
5/24/19 15:24,510
5/24/19 15:24,523
5/24/19 15:24,504
5/24/19 15:24,517
5/24/19 15:24,515
5/24/19 15:24,510
5/24/19 15:24,524
5/24/19 15:24,509
5/24/19 15:24,519
5/24/19 15:24,509
5/24/19 15:24,500
5/24/19 15:24,506
5/24/19 15:24,488
5/24/19 15:24,497
5/24/19 15:24,495
5/24/19 15:24,490
5/24/19 15:24,502
5/24/19 15:24,490
5/24/19 15:24,500
5/24/19 15:24,495
5/24/19 15:24,495
5/24/19 15:24,506
5/24/19 15:24,493
5/24/19 15:24,505
5/24/19 15:24,502
5/24/19 15:24,499
5/24/19 15:24,509
5/24/19 15:24,494
5/24/19 15:24,508
5/24/19 15:24,503
5/24/19 15:24,501
5/24/19 15:24,509
5/24/19 15:24,526
5/24/19 15:24,510
5/24/19 15:24,492
5/24/19 15:24,482
5/24/19 15:24,487
5/24/19 15:24,474
5/24/19 15:24,494
5/24/19 15:24,492
5/24/19 15:24,496
5/24/19 15:24,507
5/24/19 15:24,497
5/24/19 15:24,509
5/24/19 15:24,500
5/24/19 15:24,502
5/24/19 15:24,509
5/24/19 15:24,497
5/24/19 15:24,512
5/24/19 15:24,507
5/24/19 15:24,510
5/24/19 15:24,518
5/24/19 15:24,508
5/24/19 15:24,520
5/24/19 15:24,510
5/24/19 15:24,513
5/24/19 15:24,518
5/24/19 15:24,505
5/24/19 15:24,517
5/24/19 15:24,502
5/24/19 15:24,511
5/24/19 15:24,517
5/24/19 15:24,507
5/24/19 15:24,520
5/24/19 15:24,510
5/24/19 15:24,518
5/24/19 15:24,521
5/24/19 15:24,509
5/24/19 15:24,523
5/24/19 15:24,509
5/24/19 15:24,509
5/24/19 15:24,507
5/24/19 15:24,494
5/24/19 15:24,503
5/24/19 15:24,489
5/24/19 15:24,492
5/24/19 15:24,494
5/24/19 15:24,487
5/24/19 15:24,505
5/24/19 15:24,492
5/24/19 15:24,501
5/24/19 15:24,502
5/24/19 15:24,495
5/24/19 15:24,507
5/24/19 15:24,496
5/24/19 15:24,504
5/24/19 15:24,500
5/24/19 15:24,495
5/24/19 15:24,509
5/24/19 15:24,497
5/24/19 15:24,509
5/24/19 15:24,505
5/24/19 15:24,528
5/24/19 15:24,510
5/24/19 15:24,489
5/24/19 15:24,490
5/24/19 15:24,481
5/24/19 15:24,476
5/24/19 15:24,495
5/24/19 15:24,489
5/24/19 15:24,503
5/24/19 15:24,501
5/24/19 15:24,497
5/24/19 15:24,509
5/24/19 15:24,495
5/24/19 15:24,509
5/24/19 15:24,508
5/24/19 15:24,507
5/24/19 15:24,513
5/24/19 15:24,502
5/24/19 15:24,516
5/24/19 15:24,510
5/24/19 15:24,508
5/24/19 15:24,519
5/24/19 15:24,504
5/24/19 15:24,517
5/24/19 15:24,512
5/24/19 15:24,503
5/24/19 15:24,516
5/24/19 15:24,507
5/24/19 15:24,520
5/24/19 15:24,513
5/24/19 15:24,513
5/24/19 15:24,520
5/24/19 15:24,508
5/24/19 15:24,522
5/24/19 15:24,514
5/24/19 15:24,514
5/24/19 15:24,519
5/24/19 15:24,505
5/24/19 15:24,512
5/24/19 15:24,500
5/24/19 15:24,497
5/24/19 15:24,502
5/24/19 15:24,489
5/24/19 15:24,499
5/24/19 15:24,489
5/24/19 15:24,492
5/24/19 15:24,499
5/24/19 15:24,490
5/24/19 15:24,502
5/24/19 15:24,495
5/24/19 15:24,502
5/24/19 15:24,505
5/24/19 15:24,496
5/24/19 15:24,509
5/24/19 15:24,497
5/24/19 15:24,504
5/24/19 15:24,506
5/24/19 15:24,498
5/24/19 15:24,509
5/24/19 15:24,499
5/24/19 15:24,504
5/24/19 15:24,535
5/24/19 15:24,497
5/24/19 15:24,498
5/24/19 15:24,476
5/24/19 15:24,481
5/24/19 15:24,488
5/24/19 15:24,484
5/24/19 15:24,503
5/24/19 15:24,495
5/24/19 15:24,503
5/24/19 15:24,502
5/24/19 15:24,497
5/24/19 15:24,510
5/24/19 15:24,499
5/24/19 15:24,508
5/24/19 15:24,510
5/24/19 15:24,504
5/24/19 15:24,518
5/24/19 15:24,507
5/24/19 15:24,516
5/24/19 15:24,515
5/24/19 15:24,508
5/24/19 15:24,518
5/24/19 15:24,505
5/24/19 15:24,513
5/24/19 15:24,510
5/24/19 15:24,506
5/24/19 15:24,518
5/24/19 15:24,507
5/24/19 15:24,518
5/24/19 15:24,515
5/24/19 15:24,509
5/24/19 15:24,521
5/24/19 15:24,510
5/24/19 15:24,517
5/24/19 15:24,513
5/24/19 15:24,511
5/24/19 15:24,520
5/24/19 15:24,501
5/24/19 15:24,509
5/24/19 15:24,499
5/24/19 15:24,494
5/24/19 15:24,501
5/24/19 15:24,488
5/24/19 15:24,497
5/24/19 15:24,492
5/24/19 15:24,493
5/24/19 15:24,503
5/24/19 15:24,492
5/24/19 15:24,504
5/24/19 15:24,499
5/24/19 15:24,498
5/24/19 15:24,506
5/24/19 15:24,494
5/24/19 15:24,505
5/24/19 15:24,499
5/24/19 15:24,500
5/24/19 15:24,509
5/24/19 15:24,496
5/24/19 15:24,509
5/24/19 15:24,501
5/24/19 15:24,530
5/24/19 15:24,509
5/24/19 15:24,488
5/24/19 15:24,491
5/24/19 15:24,476
5/24/19 15:24,482
5/24/19 15:24,495
5/24/19 15:24,491
5/24/19 15:24,503
5/24/19 15:24,500
5/24/19 15:24,501
5/24/19 15:24,508
5/24/19 15:24,496
5/24/19 15:24,512
5/24/19 15:24,503
5/24/19 15:24,508
5/24/19 15:24,515
5/24/19 15:24,504
5/24/19 15:24,518
5/24/19 15:24,509
5/24/19 15:24,508
5/24/19 15:24,515
5/24/19 15:24,504
5/24/19 15:24,518
5/24/19 15:24,506
5/24/19 15:24,513
5/24/19 15:24,514
5/24/19 15:24,504
5/24/19 15:24,519
5/24/19 15:24,508
5/24/19 15:24,514
5/24/19 15:24,517
5/24/19 15:24,510
5/24/19 15:24,523
5/24/19 15:24,513
5/24/19 15:24,518
5/24/19 15:24,518
5/24/19 15:24,507
5/24/19 15:24,514
5/24/19 15:24,497
5/24/19 15:24,505
5/24/19 15:24,501
5/24/19 15:24,492
5/24/19 15:24,500
5/24/19 15:24,488
5/24/19 15:24,498
5/24/19 15:24,497
5/24/19 15:24,490
5/24/19 15:24,501
5/24/19 15:24,490
5/24/19 15:24,498
5/24/19 15:24,500
5/24/19 15:24,497
5/24/19 15:24,508
5/24/19 15:24,496
5/24/19 15:24,507
5/24/19 15:24,505
5/24/19 15:24,500
5/24/19 15:24,511
5/24/19 15:24,498
5/24/19 15:24,529
5/24/19 15:24,510
5/24/19 15:24,494
5/24/19 15:24,493
5/24/19 15:24,475
5/24/19 15:24,487
5/24/19 15:24,486
5/24/19 15:24,492
5/24/19 15:24,505
5/24/19 15:24,498
5/24/19 15:24,507
5/24/19 15:24,499
5/24/19 15:24,497
5/24/19 15:24,507
5/24/19 15:24,495
5/24/19 15:24,509
5/24/19 15:24,506
5/24/19 15:24,506
5/24/19 15:24,517
5/24/19 15:24,504
5/24/19 15:24,518
5/24/19 15:24,509
5/24/19 15:24,510
5/24/19 15:24,520
5/24/19 15:24,506
5/24/19 15:24,519
5/24/19 15:24,510
5/24/19 15:24,508
5/24/19 15:24,517
5/24/19 15:24,505
5/24/19 15:24,519
5/24/19 15:24,512
5/24/19 15:24,514
5/24/19 15:24,518
5/24/19 15:24,508
5/24/19 15:24,522
5/24/19 15:24,513
5/24/19 15:24,513
5/24/19 15:24,516
5/24/19 15:24,501
5/24/19 15:24,505
5/24/19 15:24,494
5/24/19 15:24,495
5/24/19 15:24,498
5/24/19 15:24,488
5/24/19 15:24,497
5/24/19 15:24,490
5/24/19 15:24,497
5/24/19 15:24,502
5/24/19 15:24,494
5/24/19 15:24,508
5/24/19 15:24,498
5/24/19 15:24,503
5/24/19 15:24,503
5/24/19 15:24,495
5/24/19 15:24,511
5/24/19 15:24,498
5/24/19 15:24,503
5/24/19 15:24,503
5/24/19 15:24,495
5/24/19 15:24,511
5/24/19 15:24,521
5/24/19 15:24,504
5/24/19 15:24,494
5/24/19 15:24,478
5/24/19 15:24,486
5/24/19 15:24,480
5/24/19 15:24,492
5/24/19 15:24,498
5/24/19 15:24,498
5/24/19 15:24,508
5/24/19 15:24,495
5/24/19 15:24,502
5/24/19 15:24,504
5/24/19 15:24,503
5/24/19 15:24,516
5/24/19 15:24,504
5/24/19 15:24,514
5/24/19 15:24,510
5/24/19 15:24,509
5/24/19 15:24,517
5/24/19 15:24,505
5/24/19 15:24,516
5/24/19 15:24,511
5/24/19 15:24,508
5/24/19 15:24,516
5/24/19 15:24,500
5/24/19 15:24,515
5/24/19 15:24,513
5/24/19 15:24,511
5/24/19 15:33,501
5/24/19 15:33,504
5/24/19 15:33,493
5/24/19 15:33,506
5/24/19 15:33,498
5/24/19 15:33,497
5/24/19 15:33,504
5/24/19 15:33,496
5/24/19 15:33,507
5/24/19 15:33,499
5/24/19 15:33,503
5/24/19 15:33,507
5/24/19 15:33,524
5/24/19 15:33,510
5/24/19 15:33,492
5/24/19 15:33,485
5/24/19 15:33,485
5/24/19 15:33,479
5/24/19 15:33,496
5/24/19 15:33,489
5/24/19 15:33,499
5/24/19 15:33,507
5/24/19 15:33,497
5/24/19 15:33,511
5/24/19 15:33,500
5/24/19 15:33,506
5/24/19 15:33,509
5/24/19 15:33,501
5/24/19 15:33,516
5/24/19 15:33,503
5/24/19 15:33,510
5/24/19 15:33,513
5/24/19 15:33,506
5/24/19 15:33,514
5/24/19 15:33,504
5/24/19 15:33,513
5/24/19 15:33,512
5/24/19 15:33,507
5/24/19 15:33,515
5/24/19 15:33,505
5/24/19 15:33,513
5/24/19 15:33,511
5/24/19 15:33,507
5/24/19 15:33,518
5/24/19 15:33,505
5/24/19 15:33,515
5/24/19 15:33,513
5/24/19 15:33,509
5/24/19 15:33,520
5/24/19 15:33,508
5/24/19 15:33,517
5/24/19 15:33,512
5/24/19 15:33,504
5/24/19 15:33,511
5/24/19 15:33,495
5/24/19 15:33,501
5/24/19 15:33,495
5/24/19 15:33,492
5/24/19 15:33,499
5/24/19 15:33,489
5/24/19 15:33,501
5/24/19 15:33,498
5/24/19 15:33,496
5/24/19 15:33,506
5/24/19 15:33,493
5/24/19 15:33,505
5/24/19 15:33,499
5/24/19 15:33,501
5/24/19 15:33,507
5/24/19 15:33,496
5/24/19 15:33,504
5/24/19 15:33,500
5/24/19 15:33,502
5/24/19 15:33,510
5/24/19 15:33,500
5/24/19 15:33,510
5/24/19 15:33,525
5/24/19 15:33,504
5/24/19 15:33,498
5/24/19 15:33,479
5/24/19 15:33,487
5/24/19 15:33,481
5/24/19 15:33,490
5/24/19 15:33,500
5/24/19 15:33,495
5/24/19 15:33,511
5/24/19 15:33,500
5/24/19 15:33,502
5/24/19 15:33,506
5/24/19 15:33,498
5/24/19 15:33,510
5/24/19 15:33,501
5/24/19 15:33,506
5/24/19 15:33,511
5/24/19 15:33,505
5/24/19 15:33,516
5/24/19 15:33,506
5/24/19 15:33,513
5/24/19 15:33,514
5/24/19 15:33,507
5/24/19 15:33,519
5/24/19 15:33,507
5/24/19 15:33,510
5/24/19 15:33,511
5/24/19 15:33,504
5/24/19 15:33,519
5/24/19 15:33,508
5/24/19 15:33,514
5/24/19 15:33,514
5/24/19 15:33,505
5/24/19 15:33,518
5/24/19 15:33,509
5/24/19 15:33,516
5/24/19 15:33,517
5/24/19 15:33,509
5/24/19 15:33,518
5/24/19 15:33,501
5/24/19 15:33,508
5/24/19 15:33,501
5/24/19 15:33,493
5/24/19 15:33,502
5/24/19 15:33,490
5/24/19 15:33,499
5/24/19 15:33,496
5/24/19 15:33,492
5/24/19 15:33,502
5/24/19 15:33,492
5/24/19 15:33,503
5/24/19 15:33,500
5/24/19 15:33,495
5/24/19 15:33,506
5/24/19 15:33,495
5/24/19 15:33,506
5/24/19 15:33,502
5/24/19 15:33,500
5/24/19 15:33,506
5/24/19 15:33,496
5/24/19 15:33,510
5/24/19 15:33,503
5/24/19 15:33,503
5/24/19 15:33,510
5/24/19 15:33,525
5/24/19 15:33,508
5/24/19 15:33,489
5/24/19 15:33,482
5/24/19 15:33,486
5/24/19 15:33,480
5/24/19 15:33,499
5/24/19 15:33,496
5/24/19 15:33,499
5/24/19 15:33,505
5/24/19 15:33,498
5/24/19 15:33,513
5/24/19 15:33,502
5/24/19 15:33,506
5/24/19 15:33,509
5/24/19 15:33,502
5/24/19 15:33,513
5/24/19 15:33,506
5/24/19 15:33,509
5/24/19 15:33,512
5/24/19 15:33,504
5/24/19 15:33,518
5/24/19 15:33,506
5/24/19 15:33,510
5/24/19 15:33,515
5/24/19 15:33,507
5/24/19 15:33,519
5/24/19 15:33,509
5/24/19 15:33,511
5/24/19 15:33,515
5/24/19 15:33,508
5/24/19 15:33,518
5/24/19 15:33,507
5/24/19 15:33,514
5/24/19 15:33,514
5/24/19 15:33,509
5/24/19 15:33,520
5/24/19 15:33,506
5/24/19 15:33,512
5/24/19 15:33,509
5/24/19 15:33,499
5/24/19 15:33,503
5/24/19 15:33,488
5/24/19 15:33,496
5/24/19 15:33,495
5/24/19 15:33,491
5/24/19 15:33,502
5/24/19 15:33,493
5/24/19 15:33,504
5/24/19 15:33,501
5/24/19 15:33,498
5/24/19 15:33,509
5/24/19 15:33,496
5/24/19 15:33,505
5/24/19 15:33,500
5/24/19 15:33,499
5/24/19 15:33,508
5/24/19 15:33,498
5/24/19 15:33,508
5/24/19 15:33,502
5/24/19 15:33,497
5/24/19 15:33,506
5/24/19 15:33,521
5/24/19 15:33,511
5/24/19 15:33,494
5/24/19 15:33,483
5/24/19 15:33,485
5/24/19 15:33,476
5/24/19 15:33,498
5/24/19 15:33,496
5/24/19 15:33,500
5/24/19 15:33,507
5/24/19 15:33,496
5/24/19 15:33,508
5/24/19 15:33,501
5/24/19 15:33,501
5/24/19 15:33,511
5/24/19 15:33,502
5/24/19 15:33,515
5/24/19 15:33,506
5/24/19 15:33,508
5/24/19 15:33,513
5/24/19 15:33,504
5/24/19 15:33,518
5/24/19 15:33,507
5/24/19 15:33,509
5/24/19 15:33,514
5/24/19 15:33,505
5/24/19 15:33,518
5/24/19 15:33,506
5/24/19 15:33,513
5/24/19 15:33,512
5/24/19 15:33,502
5/24/19 15:33,518
5/24/19 15:33,507
5/24/19 15:33,514
5/24/19 15:33,519
5/24/19 15:33,510
5/24/19 15:33,521
5/24/19 15:33,510
5/24/19 15:33,513
5/24/19 15:33,512
5/24/19 15:33,501
5/24/19 15:33,509
5/24/19 15:33,495
5/24/19 15:33,498
5/24/19 15:33,498
5/24/19 15:33,492
5/24/19 15:33,502
5/24/19 15:33,491
5/24/19 15:33,498
5/24/19 15:33,499
5/24/19 15:33,494
5/24/19 15:33,504
5/24/19 15:33,493
5/24/19 15:33,503
5/24/19 15:33,503
5/24/19 15:33,498
5/24/19 15:33,509
5/24/19 15:33,496
5/24/19 15:33,506
5/24/19 15:33,504
5/24/19 15:33,502
5/24/19 15:33,509
5/24/19 15:33,498
5/24/19 15:33,508
5/24/19 15:33,526
5/24/19 15:33,508
5/24/19 15:33,501
5/24/19 15:33,479
5/24/19 15:33,486
5/24/19 15:33,481
5/24/19 15:33,486
5/24/19 15:33,500
5/24/19 15:33,495
5/24/19 15:33,508
5/24/19 15:33,503
5/24/19 15:33,497
5/24/19 15:33,506
5/24/19 15:33,496
5/24/19 15:33,506
5/24/19 15:33,503
5/24/19 15:33,505
5/24/19 15:33,514
5/24/19 15:33,504
5/24/19 15:33,517
5/24/19 15:33,509
5/24/19 15:33,511
5/24/19 15:33,518
5/24/19 15:33,505
5/24/19 15:33,517
5/24/19 15:33,508
5/24/19 15:33,506
5/24/19 15:33,516
5/24/19 15:33,506
5/24/19 15:33,516
5/24/19 15:33,508
5/24/19 15:33,512
5/24/19 15:33,515
5/24/19 15:33,507
5/24/19 15:33,522
5/24/19 15:33,510
5/24/19 15:33,516
5/24/19 15:33,516
5/24/19 15:33,507
5/24/19 15:33,517
5/24/19 15:33,504
5/24/19 15:33,503
5/24/19 15:33,500
5/24/19 15:33,491
5/24/19 15:33,499
5/24/19 15:33,489
5/24/19 15:33,496
5/24/19 15:33,498
5/24/19 15:33,494
5/24/19 15:33,505
5/24/19 15:33,494
5/24/19 15:33,501
5/24/19 15:33,502
5/24/19 15:33,497
5/24/19 15:33,507
5/24/19 15:33,498
5/24/19 15:33,505
5/24/19 15:33,502
5/24/19 15:33,500
5/24/19 15:33,510
5/24/19 15:33,495
5/24/19 15:33,504
5/24/19 15:33,504
5/24/19 15:33,501
5/24/19 15:33,514
5/24/19 15:33,521
5/24/19 15:33,503
5/24/19 15:33,490
5/24/19 15:33,477
5/24/19 15:33,485
5/24/19 15:33,479
5/24/19 15:33,500
5/24/19 15:33,499
5/24/19 15:33,500
5/24/19 15:33,508
5/24/19 15:33,496
5/24/19 15:33,510
5/24/19 15:33,503
5/24/19 15:33,504
5/24/19 15:33,513
5/24/19 15:33,500
5/24/19 15:33,512
5/24/19 15:33,507
5/24/19 15:33,505
5/24/19 15:33,516
5/24/19 15:33,507
5/24/19 15:33,518
5/24/19 15:33,509
5/24/19 15:33,507
5/24/19 15:33,518
5/24/19 15:33,505
5/24/19 15:33,516
5/24/19 15:33,509
5/24/19 15:33,508
5/24/19 15:33,516
5/24/19 15:33,506
5/24/19 15:33,518
5/24/19 15:33,506
5/24/19 15:33,509
5/24/19 15:33,517
5/24/19 15:33,509
5/24/19 15:33,520
5/24/19 15:33,510
5/24/19 15:33,511
5/24/19 15:33,510
5/24/19 15:33,498
5/24/19 15:33,507
5/24/19 15:33,492
5/24/19 15:33,497
5/24/19 15:33,498
5/24/19 15:33,492
5/24/19 15:33,502
5/24/19 15:33,491
5/24/19 15:33,499
5/24/19 15:33,501
5/24/19 15:33,496
5/24/19 15:33,505
5/24/19 15:33,495
5/24/19 15:33,501
5/24/19 15:33,501
5/24/19 15:33,496
5/24/19 15:33,508
5/24/19 15:33,497
5/24/19 15:33,504
5/24/19 15:33,504
5/24/19 15:33,500
5/24/19 15:33,510
5/24/19 15:33,520
5/24/19 15:33,514
5/24/19 15:33,496
5/24/19 15:33,485
5/24/19 15:33,487
5/24/19 15:33,476
5/24/19 15:33,490
5/24/19 15:33,502
5/24/19 15:33,501
5/24/19 15:33,507
5/24/19 15:33,491
5/24/19 15:33,508
5/24/19 15:33,502
5/24/19 15:33,496
5/24/19 15:33,509
5/24/19 15:33,500
5/24/19 15:33,513
5/24/19 15:33,507
5/24/19 15:33,507
5/24/19 15:33,516
5/24/19 15:33,502
5/24/19 15:33,517
5/24/19 15:33,510
5/24/19 15:33,510
5/24/19 15:33,517
5/24/19 15:33,505
5/24/19 15:33,517
5/24/19 15:33,508
5/24/19 15:33,509
5/24/19 15:33,514
5/24/19 15:33,504
5/24/19 15:33,519
5/24/19 15:33,510
5/24/19 15:33,511
5/24/19 15:33,520
5/24/19 15:33,506
5/24/19 15:33,521
5/24/19 15:33,508
5/24/19 15:33,508
5/24/19 15:33,517
5/24/19 15:33,502
5/24/19 15:33,509
5/24/19 15:33,497
5/24/19 15:33,497
5/24/19 15:33,499
5/24/19 15:33,488
5/24/19 15:33,500
5/24/19 15:33,490
5/24/19 15:33,496
5/24/19 15:33,499
5/24/19 15:33,494
5/24/19 15:33,507
5/24/19 15:33,494
5/24/19 15:33,502
5/24/19 15:33,505
5/24/19 15:33,497
5/24/19 15:33,507
5/24/19 15:33,499
5/24/19 15:33,506
5/24/19 15:33,506
5/24/19 15:33,499
5/24/19 15:33,509
5/24/19 15:33,500
5/24/19 15:33,530
5/24/19 15:33,507
5/24/19 15:33,492
5/24/19 15:33,492
5/24/19 15:33,475
5/24/19 15:33,486
5/24/19 15:33,489
5/24/19 15:33,492
5/24/19 15:33,511
5/24/19 15:33,493
5/24/19 15:33,502
5/24/19 15:33,505
5/24/19 15:33,498
5/24/19 15:33,507
5/24/19 15:33,495
5/24/19 15:33,509
5/24/19 15:33,508
5/24/19 15:33,505
5/24/19 15:33,515
5/24/19 15:33,505
5/24/19 15:33,516
5/24/19 15:33,510
5/24/19 15:33,508
5/24/19 15:33,516
5/24/19 15:33,508
5/24/19 15:33,517
5/24/19 15:33,510
5/24/19 15:33,509
5/24/19 15:33,516
5/24/19 15:33,505
5/24/19 15:33,517
5/24/19 15:33,508
5/24/19 15:33,510
5/24/19 15:33,517
5/24/19 15:33,506
5/24/19 15:33,520
5/24/19 15:33,511
5/24/19 15:33,514
5/24/19 15:33,515
5/24/19 15:33,505
5/24/19 15:33,514
5/24/19 15:33,502
5/24/19 15:33,503
5/24/19 15:33,503
5/24/19 15:33,490
5/24/19 15:33,501
5/24/19 15:33,493
5/24/19 15:33,494
5/24/19 15:33,498
5/24/19 15:33,491
5/24/19 15:33,504
5/24/19 15:33,495
5/24/19 15:33,500
5/24/19 15:33,504
5/24/19 15:33,497
5/24/19 15:33,507
5/24/19 15:33,498
5/24/19 15:33,500
5/24/19 15:33,504
5/24/19 15:33,495
5/24/19 15:33,506
5/24/19 15:33,497
5/24/19 15:33,504
5/24/19 15:33,506
5/24/19 15:33,499
5/24/19 15:33,521
5/24/19 15:33,515
5/24/19 15:33,506
5/24/19 15:33,490
5/24/19 15:33,478
5/24/19 15:33,490
5/24/19 15:33,480
5/24/19 15:33,496
5/24/19 15:33,502
5/24/19 15:33,498
5/24/19 15:33,508
5/24/19 15:33,499
5/24/19 15:33,507
5/24/19 15:33,503
5/24/19 15:33,503
5/24/19 15:33,514
5/24/19 15:33,502
5/24/19 15:33,514
5/24/19 15:33,511
5/24/19 15:33,505
5/24/19 15:33,515
5/24/19 15:33,504
5/24/19 15:33,515
5/24/19 15:33,511
5/24/19 15:33,507
5/24/19 15:33,516
5/24/19 15:33,505
5/24/19 15:33,516
5/24/19 15:33,510
5/24/19 15:33,507
5/24/19 15:33,518
5/24/19 15:33,505
5/24/19 15:33,517
5/24/19 15:33,509
5/24/19 15:33,510
5/24/19 15:33,519
5/24/19 15:33,505
5/24/19 15:33,519
5/24/19 15:33,508
5/24/19 15:33,507
5/24/19 15:33,509
5/24/19 15:33,494
5/24/19 15:33,504
5/24/19 15:33,493
5/24/19 15:33,494
5/24/19 15:33,499
5/24/19 15:33,491
5/24/19 15:33,503
5/24/19 15:33,495
5/24/19 15:33,500
5/24/19 15:33,503
5/24/19 15:33,494
5/24/19 15:33,507
5/24/19 15:33,497
5/24/19 15:33,501
5/24/19 15:33,504
5/24/19 15:33,496
5/24/19 15:33,508
5/24/19 15:33,499
5/24/19 15:33,499
5/24/19 15:33,505
5/24/19 15:33,501
5/24/19 15:33,525
5/24/19 15:33,511
5/24/19 15:33,503
5/24/19 15:33,492
5/24/19 15:33,475
5/24/19 15:33,487
5/24/19 15:33,484
5/24/19 15:33,498
5/24/19 15:33,502
5/24/19 15:33,499
5/24/19 15:33,507
5/24/19 15:33,495
5/24/19 15:33,500
5/24/19 15:33,500
5/24/19 15:33,496
5/24/19 15:33,510
5/24/19 15:42,491
5/24/19 15:42,493
5/24/19 15:42,494
5/24/19 15:42,498
5/24/19 15:42,493
5/24/19 15:42,505
5/24/19 15:42,498
5/24/19 15:42,501
5/24/19 15:42,502
5/24/19 15:42,496
5/24/19 15:42,506
5/24/19 15:42,497
5/24/19 15:42,504
5/24/19 15:42,506
5/24/19 15:42,497
5/24/19 15:42,507
5/24/19 15:42,498
5/24/19 15:42,504
5/24/19 15:42,504
5/24/19 15:42,497
5/24/19 15:42,512
5/24/19 15:42,499
5/24/19 15:42,505
5/24/19 15:42,519
5/24/19 15:42,503
5/24/19 15:42,505
5/24/19 15:42,484
5/24/19 15:42,489
5/24/19 15:42,485
5/24/19 15:42,490
5/24/19 15:42,501
5/24/19 15:42,494
5/24/19 15:42,507
5/24/19 15:42,500
5/24/19 15:42,506
5/24/19 15:42,514
5/24/19 15:42,497
5/24/19 15:42,503
5/24/19 15:42,504
5/24/19 15:42,500
5/24/19 15:42,509
5/24/19 15:42,499
5/24/19 15:42,511
5/24/19 15:42,509
5/24/19 15:42,509
5/24/19 15:42,517
5/24/19 15:42,503
5/24/19 15:42,515
5/24/19 15:42,511
5/24/19 15:42,508
5/24/19 15:42,514
5/24/19 15:42,501
5/24/19 15:42,515
5/24/19 15:42,507
5/24/19 15:42,509
5/24/19 15:42,517
5/24/19 15:42,506
5/24/19 15:42,514
5/24/19 15:42,511
5/24/19 15:42,510
5/24/19 15:42,517
5/24/19 15:42,504
5/24/19 15:42,516
5/24/19 15:42,509
5/24/19 15:42,508
5/24/19 15:42,510
5/24/19 15:42,498
5/24/19 15:42,504
5/24/19 15:42,495
5/24/19 15:42,496
5/24/19 15:42,501
5/24/19 15:42,491
5/24/19 15:42,504
5/24/19 15:42,497
5/24/19 15:42,499
5/24/19 15:42,504
5/24/19 15:42,493
5/24/19 15:42,505
5/24/19 15:42,499
5/24/19 15:42,503
5/24/19 15:42,505
5/24/19 15:42,497
5/24/19 15:42,507
5/24/19 15:42,497
5/24/19 15:42,505
5/24/19 15:42,507
5/24/19 15:42,498
5/24/19 15:42,510
5/24/19 15:42,498
5/24/19 15:42,503
5/24/19 15:42,503
5/24/19 15:42,501
5/24/19 15:42,510
5/24/19 15:42,513
5/24/19 15:42,519
5/24/19 15:42,503
5/24/19 15:42,487
5/24/19 15:42,486
5/24/19 15:42,478
5/24/19 15:42,489
5/24/19 15:42,498
5/24/19 15:42,496
5/24/19 15:42,510
5/24/19 15:42,496
5/24/19 15:42,504
5/24/19 15:42,506
5/24/19 15:42,501
5/24/19 15:42,513
5/24/19 15:42,502
5/24/19 15:42,512
5/24/19 15:42,509
5/24/19 15:42,505
5/24/19 15:42,517
5/24/19 15:42,505
5/24/19 15:42,514
5/24/19 15:42,510
5/24/19 15:42,505
5/24/19 15:42,516
5/24/19 15:42,501
5/24/19 15:42,509
5/24/19 15:42,508
5/24/19 15:42,508
5/24/19 15:42,516
5/24/19 15:42,504
5/24/19 15:42,517
5/24/19 15:42,511
5/24/19 15:42,508
5/24/19 15:42,516
5/24/19 15:42,503
5/24/19 15:42,514
5/24/19 15:42,510
5/24/19 15:42,508
5/24/19 15:42,517
5/24/19 15:42,503
5/24/19 15:42,513
5/24/19 15:42,504
5/24/19 15:42,498
5/24/19 15:42,504
5/24/19 15:42,493
5/24/19 15:42,503
5/24/19 15:42,497
5/24/19 15:42,497
5/24/19 15:42,503
5/24/19 15:42,493
5/24/19 15:42,507
5/24/19 15:42,499
5/24/19 15:42,501
5/24/19 15:42,506
5/24/19 15:42,494
5/24/19 15:42,508
5/24/19 15:42,500
5/24/19 15:42,500
5/24/19 15:42,507
5/24/19 15:42,495
5/24/19 15:42,507
5/24/19 15:42,499
5/24/19 15:42,504
5/24/19 15:42,507
5/24/19 15:42,499
5/24/19 15:42,511
5/24/19 15:42,499
5/24/19 15:42,524
5/24/19 15:42,509
5/24/19 15:42,492
5/24/19 15:42,493
5/24/19 15:42,478
5/24/19 15:42,484
5/24/19 15:42,492
5/24/19 15:42,494
5/24/19 15:42,508
5/24/19 15:42,499
5/24/19 15:42,503
5/24/19 15:42,504
5/24/19 15:42,497
5/24/19 15:42,509
5/24/19 15:42,500
5/24/19 15:42,509
5/24/19 15:42,510
5/24/19 15:42,504
5/24/19 15:42,516
5/24/19 15:42,505
5/24/19 15:42,513
5/24/19 15:42,513
5/24/19 15:42,507
5/24/19 15:42,512
5/24/19 15:42,503
5/24/19 15:42,510
5/24/19 15:42,509
5/24/19 15:42,505
5/24/19 15:42,517
5/24/19 15:42,504
5/24/19 15:42,514
5/24/19 15:42,510
5/24/19 15:42,509
5/24/19 15:42,517
5/24/19 15:42,504
5/24/19 15:42,517
5/24/19 15:42,514
5/24/19 15:42,507
5/24/19 15:42,518
5/24/19 15:42,506
5/24/19 15:42,514
5/24/19 15:42,509
5/24/19 15:42,503
5/24/19 15:42,508
5/24/19 15:42,494
5/24/19 15:42,502
5/24/19 15:42,493
5/24/19 15:42,493
5/24/19 15:42,499
5/24/19 15:42,490
5/24/19 15:42,502
5/24/19 15:42,499
5/24/19 15:42,497
5/24/19 15:42,506
5/24/19 15:42,497
5/24/19 15:42,507
5/24/19 15:42,499
5/24/19 15:42,495
5/24/19 15:42,507
5/24/19 15:42,496
5/24/19 15:42,509
5/24/19 15:42,502
5/24/19 15:42,504
5/24/19 15:42,510
5/24/19 15:42,500
5/24/19 15:42,510
5/24/19 15:42,503
5/24/19 15:42,504
5/24/19 15:42,509
5/24/19 15:42,495
5/24/19 15:42,508
5/24/19 15:42,501
5/24/19 15:42,529
5/24/19 15:42,513
5/24/19 15:42,492
5/24/19 15:42,494
5/24/19 15:42,478
5/24/19 15:42,483
5/24/19 15:42,494
5/24/19 15:42,490
5/24/19 15:42,506
5/24/19 15:42,494
5/24/19 15:42,502
5/24/19 15:42,506
5/24/19 15:42,500
5/24/19 15:42,514
5/24/19 15:42,505
5/24/19 15:42,510
5/24/19 15:42,512
5/24/19 15:42,503
5/24/19 15:42,514
5/24/19 15:42,503
5/24/19 15:42,510
5/24/19 15:42,513
5/24/19 15:42,505
5/24/19 15:42,517
5/24/19 15:42,504
5/24/19 15:42,507
5/24/19 15:42,507
5/24/19 15:42,504
5/24/19 15:42,516
5/24/19 15:42,506
5/24/19 15:42,513
5/24/19 15:42,513
5/24/19 15:42,505
5/24/19 15:42,517
5/24/19 15:42,504
5/24/19 15:42,514
5/24/19 15:42,513
5/24/19 15:42,508
5/24/19 15:42,517
5/24/19 15:42,507
5/24/19 15:42,515
5/24/19 15:42,511
5/24/19 15:42,501
5/24/19 15:42,508
5/24/19 15:42,495
5/24/19 15:42,502
5/24/19 15:42,498
5/24/19 15:42,490
5/24/19 15:42,501
5/24/19 15:42,490
5/24/19 15:42,503
5/24/19 15:42,500
5/24/19 15:42,497
5/24/19 15:42,507
5/24/19 15:42,496
5/24/19 15:42,506
5/24/19 15:42,500
5/24/19 15:42,498
5/24/19 15:42,507
5/24/19 15:42,497
5/24/19 15:42,506
5/24/19 15:42,500
5/24/19 15:42,501
5/24/19 15:42,509
5/24/19 15:42,497
5/24/19 15:42,508
5/24/19 15:42,501
5/24/19 15:42,502
5/24/19 15:42,510
5/24/19 15:42,498
5/24/19 15:42,510
5/24/19 15:42,502
5/24/19 15:42,529
5/24/19 15:42,508
5/24/19 15:42,491
5/24/19 15:42,493
5/24/19 15:42,480
5/24/19 15:42,484
5/24/19 15:42,491
5/24/19 15:42,489
5/24/19 15:42,509
5/24/19 15:42,503
5/24/19 15:42,505
5/24/19 15:42,508
5/24/19 15:42,498
5/24/19 15:42,510
5/24/19 15:42,499
5/24/19 15:42,504
5/24/19 15:42,510
5/24/19 15:42,502
5/24/19 15:42,515
5/24/19 15:42,507
5/24/19 15:42,510
5/24/19 15:42,514
5/24/19 15:42,507
5/24/19 15:42,517
5/24/19 15:42,506
5/24/19 15:42,509
5/24/19 15:42,510
5/24/19 15:42,501
5/24/19 15:42,513
5/24/19 15:42,504
5/24/19 15:42,510
5/24/19 15:42,515
5/24/19 15:42,506
5/24/19 15:42,517
5/24/19 15:42,507
5/24/19 15:42,513
5/24/19 15:42,516
5/24/19 15:42,507
5/24/19 15:42,517
5/24/19 15:42,503
5/24/19 15:42,509
5/24/19 15:42,510
5/24/19 15:42,505
5/24/19 15:42,511
5/24/19 15:42,493
5/24/19 15:42,502
5/24/19 15:42,500
5/24/19 15:42,494
5/24/19 15:42,503
5/24/19 15:42,494
5/24/19 15:42,501
5/24/19 15:42,496
5/24/19 15:42,495
5/24/19 15:42,505
5/24/19 15:42,495
5/24/19 15:42,503
5/24/19 15:42,502
5/24/19 15:42,499
5/24/19 15:42,508
5/24/19 15:42,496
5/24/19 15:42,507
5/24/19 15:42,498
5/24/19 15:42,499
5/24/19 15:42,509
5/24/19 15:42,499
5/24/19 15:42,509
5/24/19 15:42,504
5/24/19 15:42,502
5/24/19 15:42,508
5/24/19 15:42,497
5/24/19 15:42,509
5/24/19 15:42,513
5/24/19 15:42,515
5/24/19 15:42,507
5/24/19 15:42,484
5/24/19 15:42,488
5/24/19 15:42,479
5/24/19 15:42,485
5/24/19 15:42,495
5/24/19 15:42,490
5/24/19 15:42,504
5/24/19 15:42,505
5/24/19 15:42,506
5/24/19 15:42,508
5/24/19 15:42,500
5/24/19 15:42,512
5/24/19 15:42,504
5/24/19 15:42,507
5/24/19 15:42,514
5/24/19 15:42,499
5/24/19 15:42,514
5/24/19 15:42,507
5/24/19 15:42,510
5/24/19 15:42,514
5/24/19 15:42,504
5/24/19 15:42,517
5/24/19 15:42,507
5/24/19 15:42,511
5/24/19 15:42,513
5/24/19 15:42,504
5/24/19 15:42,514
5/24/19 15:42,505
5/24/19 15:42,510
5/24/19 15:42,513
5/24/19 15:42,501
5/24/19 15:42,513
5/24/19 15:42,504
5/24/19 15:42,513
5/24/19 15:42,514
5/24/19 15:42,505
5/24/19 15:42,518
5/24/19 15:42,504
5/24/19 15:42,510
5/24/19 15:42,510
5/24/19 15:42,501
5/24/19 15:42,509
5/24/19 15:42,496
5/24/19 15:42,501
5/24/19 15:42,498
5/24/19 15:42,487
5/24/19 15:42,503
5/24/19 15:42,492
5/24/19 15:42,503
5/24/19 15:42,503
5/24/19 15:42,497
5/24/19 15:42,506
5/24/19 15:42,499
5/24/19 15:42,506
5/24/19 15:42,503
5/24/19 15:42,497
5/24/19 15:42,506
5/24/19 15:42,496
5/24/19 15:42,507
5/24/19 15:42,504
5/24/19 15:42,500
5/24/19 15:42,507
5/24/19 15:42,495
5/24/19 15:42,508
5/24/19 15:42,513
5/24/19 15:42,521
5/24/19 15:42,505
5/24/19 15:42,484
5/24/19 15:42,485
5/24/19 15:42,480
5/24/19 15:42,486
5/24/19 15:42,504
5/24/19 15:42,501
5/24/19 15:42,510
5/24/19 15:42,504
5/24/19 15:42,504
5/24/19 15:42,508
5/24/19 15:42,493
5/24/19 15:42,503
5/24/19 15:42,496
5/24/19 15:42,499
5/24/19 15:42,510
5/24/19 15:42,501
5/24/19 15:42,514
5/24/19 15:42,507
5/24/19 15:42,510
5/24/19 15:42,517
5/24/19 15:42,504
5/24/19 15:42,517
5/24/19 15:42,509
5/24/19 15:42,509
5/24/19 15:42,515
5/24/19 15:42,504
5/24/19 15:42,515
5/24/19 15:42,504
5/24/19 15:42,508
5/24/19 15:42,514
5/24/19 15:42,503
5/24/19 15:42,514
5/24/19 15:42,506
5/24/19 15:42,511
5/24/19 15:42,517
5/24/19 15:42,507
5/24/19 15:42,519
5/24/19 15:42,506
5/24/19 15:42,510
5/24/19 15:42,513
5/24/19 15:42,502
5/24/19 15:42,507
5/24/19 15:42,496
5/24/19 15:42,500
5/24/19 15:42,499
5/24/19 15:42,493
5/24/19 15:42,502
5/24/19 15:42,492
5/24/19 15:42,498
5/24/19 15:42,501
5/24/19 15:42,494
5/24/19 15:42,505
5/24/19 15:42,493
5/24/19 15:42,502
5/24/19 15:42,503
5/24/19 15:42,497
5/24/19 15:42,509
5/24/19 15:42,496
5/24/19 15:42,502
5/24/19 15:42,503
5/24/19 15:42,499
5/24/19 15:42,508
5/24/19 15:42,499
5/24/19 15:42,508
5/24/19 15:42,506
5/24/19 15:42,501
5/24/19 15:42,510
5/24/19 15:42,495
5/24/19 15:42,507
5/24/19 15:42,505
5/24/19 15:42,500
5/24/19 15:42,511
5/24/19 15:42,501
5/24/19 15:42,528
5/24/19 15:42,513
5/24/19 15:42,492
5/24/19 15:42,494
5/24/19 15:42,476
5/24/19 15:42,484
5/24/19 15:42,487
5/24/19 15:42,496
5/24/19 15:42,514
5/24/19 15:42,500
5/24/19 15:42,516
5/24/19 15:42,504
5/24/19 15:42,501
5/24/19 15:42,505
5/24/19 15:42,495
5/24/19 15:42,507
5/24/19 15:42,501
5/24/19 15:42,502
5/24/19 15:42,511
5/24/19 15:42,500
5/24/19 15:42,513
5/24/19 15:42,508
5/24/19 15:42,509
5/24/19 15:42,514
5/24/19 15:42,503
5/24/19 15:42,514
5/24/19 15:42,508
5/24/19 15:42,509
5/24/19 15:42,511
5/24/19 15:42,505
5/24/19 15:42,517
5/24/19 15:42,506
5/24/19 15:42,508
5/24/19 15:42,515
5/24/19 15:42,504
5/24/19 15:42,518
5/24/19 15:42,509
5/24/19 15:42,510
5/24/19 15:42,516
5/24/19 15:42,507
5/24/19 15:42,518
5/24/19 15:42,506
5/24/19 15:42,508
5/24/19 15:42,506
5/24/19 15:42,495
5/24/19 15:42,507
5/24/19 15:42,497
5/24/19 15:42,497
5/24/19 15:42,500
5/24/19 15:42,489
5/24/19 15:42,502
5/24/19 15:42,495
5/24/19 15:42,500
5/24/19 15:42,504
5/24/19 15:42,492
5/24/19 15:42,506
5/24/19 15:42,499
5/24/19 15:42,504
5/24/19 15:42,506
5/24/19 15:42,498
5/24/19 15:42,511
5/24/19 15:42,497
5/24/19 15:42,503
5/24/19 15:42,503
5/24/19 15:42,495
5/24/19 15:42,508
5/24/19 15:42,498
5/24/19 15:42,505
5/24/19 15:42,504
5/24/19 15:42,497
5/24/19 15:42,510
5/24/19 15:42,499
5/24/19 15:42,512
5/24/19 15:42,529
5/24/19 15:42,498
5/24/19 15:42,497
5/24/19 15:42,479
5/24/19 15:42,490
5/24/19 15:42,490
5/24/19 15:42,487
5/24/19 15:42,503
5/24/19 15:51,497
5/24/19 15:51,500
5/24/19 15:51,494
5/24/19 15:51,504
5/24/19 15:51,492
5/24/19 15:51,502
5/24/19 15:51,498
5/24/19 15:51,493
5/24/19 15:51,502
5/24/19 15:51,490
5/24/19 15:51,504
5/24/19 15:51,503
5/24/19 15:51,501
5/24/19 15:51,507
5/24/19 15:51,497
5/24/19 15:51,506
5/24/19 15:51,503
5/24/19 15:51,500
5/24/19 15:51,507
5/24/19 15:51,497
5/24/19 15:51,506
5/24/19 15:51,504
5/24/19 15:51,502
5/24/19 15:51,508
5/24/19 15:51,498
5/24/19 15:51,508
5/24/19 15:51,501
5/24/19 15:51,507
5/24/19 15:51,536
5/24/19 15:51,493
5/24/19 15:51,496
5/24/19 15:51,483
5/24/19 15:51,482
5/24/19 15:51,491
5/24/19 15:51,487
5/24/19 15:51,502
5/24/19 15:51,502
5/24/19 15:51,503
5/24/19 15:51,513
5/24/19 15:51,499
5/24/19 15:51,509
5/24/19 15:51,505
5/24/19 15:51,507
5/24/19 15:51,513
5/24/19 15:51,502
5/24/19 15:51,511
5/24/19 15:51,504
5/24/19 15:51,509
5/24/19 15:51,513
5/24/19 15:51,501
5/24/19 15:51,515
5/24/19 15:51,506
5/24/19 15:51,507
5/24/19 15:51,511
5/24/19 15:51,500
5/24/19 15:51,514
5/24/19 15:51,506
5/24/19 15:51,507
5/24/19 15:51,512
5/24/19 15:51,506
5/24/19 15:51,516
5/24/19 15:51,507
5/24/19 15:51,513
5/24/19 15:51,513
5/24/19 15:51,506
5/24/19 15:51,517
5/24/19 15:51,506
5/24/19 15:51,512
5/24/19 15:51,508
5/24/19 15:51,502
5/24/19 15:51,513
5/24/19 15:51,497
5/24/19 15:51,501
5/24/19 15:51,501
5/24/19 15:51,494
5/24/19 15:51,504
5/24/19 15:51,491
5/24/19 15:51,501
5/24/19 15:51,500
5/24/19 15:51,496
5/24/19 15:51,507
5/24/19 15:51,498
5/24/19 15:51,502
5/24/19 15:51,503
5/24/19 15:51,498
5/24/19 15:51,507
5/24/19 15:51,498
5/24/19 15:51,506
5/24/19 15:51,503
5/24/19 15:51,500
5/24/19 15:51,505
5/24/19 15:51,498
5/24/19 15:51,505
5/24/19 15:51,505
5/24/19 15:51,502
5/24/19 15:51,509
5/24/19 15:51,500
5/24/19 15:51,507
5/24/19 15:51,514
5/24/19 15:51,517
5/24/19 15:51,507
5/24/19 15:51,487
5/24/19 15:51,489
5/24/19 15:51,483
5/24/19 15:51,487
5/24/19 15:51,498
5/24/19 15:51,496
5/24/19 15:51,511
5/24/19 15:51,505
5/24/19 15:51,501
5/24/19 15:51,509
5/24/19 15:51,497
5/24/19 15:51,507
5/24/19 15:51,501
5/24/19 15:51,501
5/24/19 15:51,509
5/24/19 15:51,500
5/24/19 15:51,513
5/24/19 15:51,506
5/24/19 15:51,508
5/24/19 15:51,511
5/24/19 15:51,503
5/24/19 15:51,514
5/24/19 15:51,507
5/24/19 15:51,509
5/24/19 15:51,516
5/24/19 15:51,504
5/24/19 15:51,514
5/24/19 15:51,508
5/24/19 15:51,510
5/24/19 15:51,514
5/24/19 15:51,503
5/24/19 15:51,516
5/24/19 15:51,508
5/24/19 15:51,509
5/24/19 15:51,514
5/24/19 15:51,507
5/24/19 15:51,516
5/24/19 15:51,503
5/24/19 15:51,508
5/24/19 15:51,513
5/24/19 15:51,502
5/24/19 15:51,511
5/24/19 15:51,498
5/24/19 15:51,500
5/24/19 15:51,501
5/24/19 15:51,493
5/24/19 15:51,504
5/24/19 15:51,490
5/24/19 15:51,495
5/24/19 15:51,498
5/24/19 15:51,494
5/24/19 15:51,505
5/24/19 15:51,496
5/24/19 15:51,504
5/24/19 15:51,505
5/24/19 15:51,498
5/24/19 15:51,508
5/24/19 15:51,498
5/24/19 15:51,507
5/24/19 15:51,504
5/24/19 15:51,501
5/24/19 15:51,511
5/24/19 15:51,499
5/24/19 15:51,506
5/24/19 15:51,504
5/24/19 15:51,501
5/24/19 15:51,509
5/24/19 15:51,500
5/24/19 15:51,507
5/24/19 15:51,504
5/24/19 15:51,500
5/24/19 15:51,507
5/24/19 15:51,499
5/24/19 15:51,516
5/24/19 15:51,511
5/24/19 15:51,496
5/24/19 15:51,492
5/24/19 15:51,478
5/24/19 15:51,487
5/24/19 15:51,491
5/24/19 15:51,498
5/24/19 15:51,509
5/24/19 15:51,500
5/24/19 15:51,508
5/24/19 15:51,502
5/24/19 15:51,500
5/24/19 15:51,508
5/24/19 15:51,500
5/24/19 15:51,510
5/24/19 15:51,507
5/24/19 15:51,506
5/24/19 15:51,513
5/24/19 15:51,499
5/24/19 15:51,514
5/24/19 15:51,506
5/24/19 15:51,509
5/24/19 15:51,515
5/24/19 15:51,505
5/24/19 15:51,515
5/24/19 15:51,507
5/24/19 15:51,506
5/24/19 15:51,510
5/24/19 15:51,501
5/24/19 15:51,515
5/24/19 15:51,505
5/24/19 15:51,508
5/24/19 15:51,513
5/24/19 15:51,504
5/24/19 15:51,516
5/24/19 15:51,508
5/24/19 15:51,511
5/24/19 15:51,513
5/24/19 15:51,503
5/24/19 15:51,516
5/24/19 15:51,508
5/24/19 15:51,511
5/24/19 15:51,511
5/24/19 15:51,499
5/24/19 15:51,506
5/24/19 15:51,493
5/24/19 15:51,498
5/24/19 15:51,500
5/24/19 15:51,491
5/24/19 15:51,505
5/24/19 15:51,494
5/24/19 15:51,500
5/24/19 15:51,501
5/24/19 15:51,495
5/24/19 15:51,506
5/24/19 15:51,492
5/24/19 15:51,501
5/24/19 15:51,503
5/24/19 15:51,498
5/24/19 15:51,509
5/24/19 15:51,500
5/24/19 15:51,507
5/24/19 15:51,506
5/24/19 15:51,501
5/24/19 15:51,511
5/24/19 15:51,499
5/24/19 15:51,508
5/24/19 15:51,506
5/24/19 15:51,501
5/24/19 15:51,510
5/24/19 15:51,497
5/24/19 15:51,507
5/24/19 15:51,504
5/24/19 15:51,501
5/24/19 15:51,511
5/24/19 15:51,523
5/24/19 15:51,506
5/24/19 15:51,493
5/24/19 15:51,481
5/24/19 15:51,489
5/24/19 15:51,481
5/24/19 15:51,499
5/24/19 15:51,504
5/24/19 15:51,501
5/24/19 15:51,509
5/24/19 15:51,493
5/24/19 15:51,507
5/24/19 15:51,502
5/24/19 15:51,500
5/24/19 15:51,507
5/24/19 15:51,499
5/24/19 15:51,511
5/24/19 15:51,506
5/24/19 15:51,509
5/24/19 15:51,515
5/24/19 15:51,505
5/24/19 15:51,515
5/24/19 15:51,506
5/24/19 15:51,507
5/24/19 15:51,515
5/24/19 15:51,505
5/24/19 15:51,515
5/24/19 15:51,504
5/24/19 15:51,506
5/24/19 15:51,510
5/24/19 15:51,503
5/24/19 15:51,516
5/24/19 15:51,506
5/24/19 15:51,509
5/24/19 15:51,510
5/24/19 15:51,505
5/24/19 15:51,516
5/24/19 15:51,509
5/24/19 15:51,512
5/24/19 15:51,516
5/24/19 15:51,506
5/24/19 15:51,517
5/24/19 15:51,504
5/24/19 15:51,507
5/24/19 15:51,505
5/24/19 15:51,492
5/24/19 15:51,503
5/24/19 15:51,492
5/24/19 15:51,500
5/24/19 15:51,500
5/24/19 15:51,492
5/24/19 15:51,504
5/24/19 15:51,493
5/24/19 15:51,499
5/24/19 15:51,502
5/24/19 15:51,494
5/24/19 15:51,507
5/24/19 15:51,495
5/24/19 15:51,504
5/24/19 15:51,506
5/24/19 15:51,500
5/24/19 15:51,511
5/24/19 15:51,499
5/24/19 15:51,506
5/24/19 15:51,505
5/24/19 15:51,501
5/24/19 15:51,508
5/24/19 15:51,497
5/24/19 15:51,504
5/24/19 15:51,503
5/24/19 15:51,500
5/24/19 15:51,510
5/24/19 15:51,500
5/24/19 15:51,507
5/24/19 15:51,513
5/24/19 15:51,528
5/24/19 15:51,509
5/24/19 15:51,486
5/24/19 15:51,487
5/24/19 15:51,486
5/24/19 15:51,482
5/24/19 15:51,498
5/24/19 15:51,493
5/24/19 15:51,505
5/24/19 15:51,502
5/24/19 15:51,497
5/24/19 15:51,508
5/24/19 15:51,497
5/24/19 15:51,508
5/24/19 15:51,507
5/24/19 15:51,507
5/24/19 15:51,516
5/24/19 15:51,505
5/24/19 15:51,515
5/24/19 15:51,508
5/24/19 15:51,507
5/24/19 15:51,516
5/24/19 15:51,504
5/24/19 15:51,514
5/24/19 15:51,506
5/24/19 15:51,507
5/24/19 15:51,512
5/24/19 15:51,503
5/24/19 15:51,513
5/24/19 15:51,505
5/24/19 15:51,506
5/24/19 15:51,513
5/24/19 15:51,502
5/24/19 15:51,514
5/24/19 15:51,504
5/24/19 15:51,508
5/24/19 15:51,513
5/24/19 15:51,507
5/24/19 15:51,519
5/24/19 15:51,508
5/24/19 15:51,509
5/24/19 15:51,513
5/24/19 15:51,503
5/24/19 15:51,513
5/24/19 15:51,500
5/24/19 15:51,501
5/24/19 15:51,502
5/24/19 15:51,492
5/24/19 15:51,500
5/24/19 15:51,492
5/24/19 15:51,499
5/24/19 15:51,502
5/24/19 15:51,493
5/24/19 15:51,507
5/24/19 15:51,496
5/24/19 15:51,501
5/24/19 15:51,505
5/24/19 15:51,498
5/24/19 15:51,510
5/24/19 15:51,497
5/24/19 15:51,503
5/24/19 15:51,507
5/24/19 15:51,500
5/24/19 15:51,509
5/24/19 15:51,495
5/24/19 15:51,502
5/24/19 15:51,504
5/24/19 15:51,501
5/24/19 15:51,511
5/24/19 15:51,500
5/24/19 15:51,508
5/24/19 15:51,517
5/24/19 15:51,515
5/24/19 15:51,506
5/24/19 15:51,485
5/24/19 15:51,488
5/24/19 15:51,486
5/24/19 15:51,488
5/24/19 15:51,499
5/24/19 15:51,494
5/24/19 15:51,506
5/24/19 15:51,502
5/24/19 15:51,497
5/24/19 15:51,512
5/24/19 15:51,500
5/24/19 15:51,509
5/24/19 15:51,504
5/24/19 15:51,502
5/24/19 15:51,511
5/24/19 15:51,503
5/24/19 15:51,515
5/24/19 15:51,507
5/24/19 15:51,507
5/24/19 15:51,510
5/24/19 15:51,502
5/24/19 15:51,514
5/24/19 15:51,509
5/24/19 15:51,507
5/24/19 15:51,516
5/24/19 15:51,504
5/24/19 15:51,512
5/24/19 15:51,508
5/24/19 15:51,509
5/24/19 15:51,514
5/24/19 15:51,502
5/24/19 15:51,514
5/24/19 15:51,506
5/24/19 15:51,508
5/24/19 15:51,516
5/24/19 15:51,501
5/24/19 15:51,514
5/24/19 15:51,508
5/24/19 15:51,512
5/24/19 15:51,514
5/24/19 15:51,501
5/24/19 15:51,510
5/24/19 15:51,499
5/24/19 15:51,499
5/24/19 15:51,501
5/24/19 15:51,491
5/24/19 15:51,503
5/24/19 15:51,495
5/24/19 15:51,499
5/24/19 15:51,501
5/24/19 15:51,494
5/24/19 15:51,503
5/24/19 15:51,493
5/24/19 15:51,501
5/24/19 15:51,503
5/24/19 15:51,499
5/24/19 15:51,510
5/24/19 15:51,499
5/24/19 15:51,504
5/24/19 15:51,507
5/24/19 15:51,500
5/24/19 15:51,510
5/24/19 15:51,499
5/24/19 15:51,506
5/24/19 15:51,505
5/24/19 15:51,498
5/24/19 15:51,509
5/24/19 15:51,500
5/24/19 15:51,507
5/24/19 15:51,507
5/24/19 15:51,523
5/24/19 15:51,507
5/24/19 15:51,490
5/24/19 15:51,489
5/24/19 15:51,488
5/24/19 15:51,485
5/24/19 15:51,502
5/24/19 15:51,495
5/24/19 15:51,505
5/24/19 15:51,504
5/24/19 15:51,497
5/24/19 15:51,505
5/24/19 15:51,497
5/24/19 15:51,507
5/24/19 15:51,503
5/24/19 15:51,502
5/24/19 15:51,511
5/24/19 15:51,502
5/24/19 15:51,512
5/24/19 15:51,507
5/24/19 15:51,506
5/24/19 15:51,516
5/24/19 15:51,505
5/24/19 15:51,516
5/24/19 15:51,510
5/24/19 15:51,507
5/24/19 15:51,513
5/24/19 15:51,503
5/24/19 15:51,513
5/24/19 15:51,507
5/24/19 15:51,507
5/24/19 15:51,512
5/24/19 15:51,503
5/24/19 15:51,515
5/24/19 15:51,508
5/24/19 15:51,507
5/24/19 15:51,513
5/24/19 15:51,503
5/24/19 15:51,516
5/24/19 15:51,509
5/24/19 15:51,510
5/24/19 15:51,513
5/24/19 15:51,502
5/24/19 15:51,511
5/24/19 15:51,500
5/24/19 15:51,500
5/24/19 15:51,503
5/24/19 15:51,493
5/24/19 15:51,503
5/24/19 15:51,492
5/24/19 15:51,497
5/24/19 15:51,499
5/24/19 15:51,494
5/24/19 15:51,506
5/24/19 15:51,498
5/24/19 15:51,503
5/24/19 15:51,504
5/24/19 15:51,496
5/24/19 15:51,508
5/24/19 15:51,499
5/24/19 15:51,504
5/24/19 15:51,507
5/24/19 15:51,499
5/24/19 15:51,509
5/24/19 15:51,499
5/24/19 15:51,505
5/24/19 15:51,506
5/24/19 15:51,500
5/24/19 15:51,509
5/24/19 15:51,499
5/24/19 15:51,507
5/24/19 15:51,505
5/24/19 15:51,517
5/24/19 15:51,511
5/24/19 15:51,493
5/24/19 15:51,491
5/24/19 15:51,485
5/24/19 15:51,485
5/24/19 15:51,499
5/24/19 15:51,492
5/24/19 15:51,498
5/24/19 15:51,510
5/24/19 15:51,508
5/24/19 15:51,512
5/24/19 15:51,497
5/24/19 15:51,506
5/24/19 15:51,499
5/24/19 15:51,495
5/24/19 15:51,507
5/24/19 15:51,497
5/24/19 15:51,513
5/24/19 15:51,508
5/24/19 15:51,506
5/24/19 15:51,516
5/24/19 15:51,504
5/24/19 15:51,514
5/24/19 15:51,511
5/24/19 15:51,507
5/24/19 15:51,516
5/24/19 15:51,503
5/24/19 15:51,513
5/24/19 15:51,506
5/24/19 15:51,505
5/24/19 15:51,512
5/24/19 15:51,501
5/24/19 15:51,515
5/24/19 15:51,508
5/24/19 15:51,506
5/24/19 15:51,516
5/24/19 15:51,506
5/24/19 15:51,517
5/24/19 15:51,509
5/24/19 15:51,509
5/24/19 15:51,515
5/24/19 15:51,502
5/24/19 15:51,511
5/24/19 15:51,499
5/24/19 15:51,498
5/24/19 15:51,503
5/24/19 15:51,493
5/24/19 15:51,504
5/24/19 15:51,494
5/24/19 15:51,497
5/24/19 15:51,497
5/24/19 15:51,490
5/24/19 15:51,506
5/24/19 15:51,497
5/24/19 15:51,501
5/24/19 15:51,506
5/24/19 15:51,497
5/24/19 15:51,509
5/24/19 16:00,504
5/24/19 16:00,501
5/24/19 16:00,513
5/24/19 16:00,500
5/24/19 16:00,503
5/24/19 16:00,504
5/24/19 16:00,494
5/24/19 16:00,504
5/24/19 16:00,494
5/24/19 16:00,499
5/24/19 16:00,499
5/24/19 16:00,491
5/24/19 16:00,504
5/24/19 16:00,492
5/24/19 16:00,501
5/24/19 16:00,503
5/24/19 16:00,498
5/24/19 16:00,508
5/24/19 16:00,499
5/24/19 16:00,505
5/24/19 16:00,507
5/24/19 16:00,499
5/24/19 16:00,508
5/24/19 16:00,498
5/24/19 16:00,506
5/24/19 16:00,506
5/24/19 16:00,499
5/24/19 16:00,511
5/24/19 16:00,499
5/24/19 16:00,505
5/24/19 16:00,502
5/24/19 16:00,495
5/24/19 16:00,509
5/24/19 16:00,500
5/24/19 16:00,507
5/24/19 16:00,504
5/24/19 16:00,501
5/24/19 16:00,533
5/24/19 16:00,499
5/24/19 16:00,502
5/24/19 16:00,488
5/24/19 16:00,485
5/24/19 16:00,495
5/24/19 16:00,489
5/24/19 16:00,502
5/24/19 16:00,498
5/24/19 16:00,499
5/24/19 16:00,509
5/24/19 16:00,502
5/24/19 16:00,505
5/24/19 16:00,503
5/24/19 16:00,502
5/24/19 16:00,512
5/24/19 16:00,501
5/24/19 16:00,513
5/24/19 16:00,506
5/24/19 16:00,499
5/24/19 16:00,511
5/24/19 16:00,504
5/24/19 16:00,519
5/24/19 16:00,511
5/24/19 16:00,510
5/24/19 16:00,515
5/24/19 16:00,506
5/24/19 16:00,511
5/24/19 16:00,505
5/24/19 16:00,504
5/24/19 16:00,514
5/24/19 16:00,500
5/24/19 16:00,511
5/24/19 16:00,507
5/24/19 16:00,507
5/24/19 16:00,511
5/24/19 16:00,502
5/24/19 16:00,513
5/24/19 16:00,505
5/24/19 16:00,503
5/24/19 16:00,509
5/24/19 16:00,501
5/24/19 16:00,514
5/24/19 16:00,507
5/24/19 16:00,506
5/24/19 16:00,512
5/24/19 16:00,499
5/24/19 16:00,510
5/24/19 16:00,499
5/24/19 16:00,500
5/24/19 16:00,505
5/24/19 16:00,493
5/24/19 16:00,504
5/24/19 16:00,498
5/24/19 16:00,500
5/24/19 16:00,504
5/24/19 16:00,496
5/24/19 16:00,506
5/24/19 16:00,497
5/24/19 16:00,501
5/24/19 16:00,502
5/24/19 16:00,496
5/24/19 16:00,508
5/24/19 16:00,501
5/24/19 16:00,506
5/24/19 16:00,507
5/24/19 16:00,499
5/24/19 16:00,509
5/24/19 16:00,498
5/24/19 16:00,505
5/24/19 16:00,507
5/24/19 16:00,497
5/24/19 16:00,509
5/24/19 16:00,499
5/24/19 16:00,508
5/24/19 16:00,506
5/24/19 16:00,496
5/24/19 16:00,507
5/24/19 16:00,500
5/24/19 16:00,506
5/24/19 16:00,507
5/24/19 16:00,503
5/24/19 16:00,510
5/24/19 16:00,501
5/24/19 16:00,510
5/24/19 16:00,530
5/24/19 16:00,500
5/24/19 16:00,503
5/24/19 16:00,483
5/24/19 16:00,487
5/24/19 16:00,492
5/24/19 16:00,491
5/24/19 16:00,501
5/24/19 16:00,497
5/24/19 16:00,506
5/24/19 16:00,511
5/24/19 16:00,501
5/24/19 16:00,506
5/24/19 16:00,497
5/24/19 16:00,505
5/24/19 16:00,505
5/24/19 16:00,500
5/24/19 16:00,513
5/24/19 16:00,501
5/24/19 16:00,511
5/24/19 16:00,506
5/24/19 16:00,506
5/24/19 16:00,513
5/24/19 16:00,502
5/24/19 16:00,511
5/24/19 16:00,509
5/24/19 16:00,505
5/24/19 16:00,513
5/24/19 16:00,505
5/24/19 16:00,513
5/24/19 16:00,507
5/24/19 16:00,508
5/24/19 16:00,510
5/24/19 16:00,499
5/24/19 16:00,514
5/24/19 16:00,507
5/24/19 16:00,509
5/24/19 16:00,514
5/24/19 16:00,504
5/24/19 16:00,514
5/24/19 16:00,509
5/24/19 16:00,508
5/24/19 16:00,514
5/24/19 16:00,504
5/24/19 16:00,514
5/24/19 16:00,504
5/24/19 16:00,505
5/24/19 16:00,506
5/24/19 16:00,496
5/24/19 16:00,506
5/24/19 16:00,496
5/24/19 16:00,495
5/24/19 16:00,501
5/24/19 16:00,493
5/24/19 16:00,503
5/24/19 16:00,498
5/24/19 16:00,498
5/24/19 16:00,503
5/24/19 16:00,496
5/24/19 16:00,506
5/24/19 16:00,497
5/24/19 16:00,501
5/24/19 16:00,505
5/24/19 16:00,495
5/24/19 16:00,507
5/24/19 16:00,499
5/24/19 16:00,505
5/24/19 16:00,508
5/24/19 16:00,501
5/24/19 16:00,509
5/24/19 16:00,500
5/24/19 16:00,507
5/24/19 16:00,507
5/24/19 16:00,500
5/24/19 16:00,510
5/24/19 16:00,500
5/24/19 16:00,506
5/24/19 16:00,506
5/24/19 16:00,499
5/24/19 16:00,506
5/24/19 16:00,497
5/24/19 16:00,505
5/24/19 16:00,507
5/24/19 16:00,517
5/24/19 16:00,521
5/24/19 16:00,495
5/24/19 16:00,495
5/24/19 16:00,485
5/24/19 16:00,481
5/24/19 16:00,496
5/24/19 16:00,490
5/24/19 16:00,502
5/24/19 16:00,501
5/24/19 16:00,500
5/24/19 16:00,511
5/24/19 16:00,500
5/24/19 16:00,511
5/24/19 16:00,507
5/24/19 16:00,504
5/24/19 16:00,511
5/24/19 16:00,501
5/24/19 16:00,511
5/24/19 16:00,506
5/24/19 16:00,504
5/24/19 16:00,507
5/24/19 16:00,501
5/24/19 16:00,510
5/24/19 16:00,507
5/24/19 16:00,505
5/24/19 16:00,513
5/24/19 16:00,505
5/24/19 16:00,513
5/24/19 16:00,508
5/24/19 16:00,506
5/24/19 16:00,511
5/24/19 16:00,500
5/24/19 16:00,513
5/24/19 16:00,508
5/24/19 16:00,507
5/24/19 16:00,515
5/24/19 16:00,502
5/24/19 16:00,512
5/24/19 16:00,503
5/24/19 16:00,504
5/24/19 16:00,513
5/24/19 16:00,503
5/24/19 16:00,517
5/24/19 16:00,508
5/24/19 16:00,507
5/24/19 16:00,510
5/24/19 16:00,500
5/24/19 16:00,509
5/24/19 16:00,498
5/24/19 16:00,499
5/24/19 16:00,503
5/24/19 16:00,493
5/24/19 16:00,506
5/24/19 16:00,495
5/24/19 16:00,500
5/24/19 16:00,502
5/24/19 16:00,495
5/24/19 16:00,502
5/24/19 16:00,493
5/24/19 16:00,501
5/24/19 16:00,506
5/24/19 16:00,499
5/24/19 16:00,510
5/24/19 16:00,500
5/24/19 16:00,504
5/24/19 16:00,506
5/24/19 16:00,499
5/24/19 16:00,511
5/24/19 16:00,500
5/24/19 16:00,506
5/24/19 16:00,507
5/24/19 16:00,496
5/24/19 16:00,509
5/24/19 16:00,498
5/24/19 16:00,506
5/24/19 16:00,504
5/24/19 16:00,498
5/24/19 16:00,509
5/24/19 16:00,510
5/24/19 16:00,524
5/24/19 16:00,504
5/24/19 16:00,490
5/24/19 16:00,492
5/24/19 16:00,486
5/24/19 16:00,491
5/24/19 16:00,499
5/24/19 16:00,495
5/24/19 16:00,512
5/24/19 16:00,500
5/24/19 16:00,507
5/24/19 16:00,499
5/24/19 16:00,500
5/24/19 16:00,506
5/24/19 16:00,494
5/24/19 16:00,506
5/24/19 16:00,505
5/24/19 16:00,502
5/24/19 16:00,509
5/24/19 16:00,501
5/24/19 16:00,512
5/24/19 16:00,510
5/24/19 16:00,507
5/24/19 16:00,516
5/24/19 16:00,505
5/24/19 16:00,516
5/24/19 16:00,508
5/24/19 16:00,506
5/24/19 16:00,514
5/24/19 16:00,503
5/24/19 16:00,514
5/24/19 16:00,507
5/24/19 16:00,505
5/24/19 16:00,512
5/24/19 16:00,503
5/24/19 16:00,514
5/24/19 16:00,507
5/24/19 16:00,506
5/24/19 16:00,513
5/24/19 16:00,499
5/24/19 16:00,513
5/24/19 16:00,509
5/24/19 16:00,509
5/24/19 16:00,514
5/24/19 16:00,503
5/24/19 16:00,512
5/24/19 16:00,503
5/24/19 16:00,501
5/24/19 16:00,504
5/24/19 16:00,492
5/24/19 16:00,504
5/24/19 16:00,496
5/24/19 16:00,498
5/24/19 16:00,501
5/24/19 16:00,494
5/24/19 16:00,505
5/24/19 16:00,494
5/24/19 16:00,497
5/24/19 16:00,504
5/24/19 16:00,497
5/24/19 16:00,510
5/24/19 16:00,499
5/24/19 16:00,503
5/24/19 16:00,508
5/24/19 16:00,500
5/24/19 16:00,509
5/24/19 16:00,500
5/24/19 16:00,504
5/24/19 16:00,507
5/24/19 16:00,498
5/24/19 16:00,509
5/24/19 16:00,502
5/24/19 16:00,503
5/24/19 16:00,508
5/24/19 16:00,498
5/24/19 16:00,506
5/24/19 16:00,501
5/24/19 16:00,508
5/24/19 16:00,507
5/24/19 16:00,501
5/24/19 16:00,513
5/24/19 16:00,500
5/24/19 16:00,503
5/24/19 16:00,518
5/24/19 16:00,514
5/24/19 16:00,506
5/24/19 16:00,487
5/24/19 16:00,485
5/24/19 16:00,483
5/24/19 16:00,485
5/24/19 16:00,501
5/24/19 16:00,492
5/24/19 16:00,503
5/24/19 16:00,505
5/24/19 16:00,502
5/24/19 16:00,511
5/24/19 16:00,505
5/24/19 16:00,513
5/24/19 16:00,503
5/24/19 16:00,506
5/24/19 16:00,516
5/24/19 16:00,505
5/24/19 16:00,509
5/24/19 16:00,504
5/24/19 16:00,507
5/24/19 16:00,516
5/24/19 16:00,504
5/24/19 16:00,511
5/24/19 16:00,507
5/24/19 16:00,506
5/24/19 16:00,510
5/24/19 16:00,501
5/24/19 16:00,514
5/24/19 16:00,504
5/24/19 16:00,504
5/24/19 16:00,510
5/24/19 16:00,506
5/24/19 16:00,514
5/24/19 16:00,503
5/24/19 16:00,506
5/24/19 16:00,514
5/24/19 16:00,504
5/24/19 16:00,515
5/24/19 16:00,507
5/24/19 16:00,510
5/24/19 16:00,514
5/24/19 16:00,501
5/24/19 16:00,513
5/24/19 16:00,505
5/24/19 16:00,502
5/24/19 16:00,505
5/24/19 16:00,492
5/24/19 16:00,504
5/24/19 16:00,496
5/24/19 16:00,497
5/24/19 16:00,502
5/24/19 16:00,489
5/24/19 16:00,504
5/24/19 16:00,498
5/24/19 16:00,500
5/24/19 16:00,505
5/24/19 16:00,497
5/24/19 16:00,508
5/24/19 16:00,501
5/24/19 16:00,502
5/24/19 16:00,505
5/24/19 16:00,499
5/24/19 16:00,508
5/24/19 16:00,499
5/24/19 16:00,505
5/24/19 16:00,506
5/24/19 16:00,495
5/24/19 16:00,508
5/24/19 16:00,499
5/24/19 16:00,506
5/24/19 16:00,509
5/24/19 16:00,501
5/24/19 16:00,512
5/24/19 16:00,501
5/24/19 16:00,506
5/24/19 16:00,504
5/24/19 16:00,498
5/24/19 16:00,508
5/24/19 16:00,500
5/24/19 16:00,507
5/24/19 16:00,502
5/24/19 16:00,495
5/24/19 16:00,510
5/24/19 16:00,500
5/24/19 16:00,507
5/24/19 16:00,506
5/24/19 16:00,501
5/24/19 16:00,511
5/24/19 16:00,499
5/24/19 16:00,509
5/24/19 16:00,505
5/24/19 16:00,520
5/24/19 16:00,517
5/24/19 16:00,494
5/24/19 16:00,497
5/24/19 16:00,487
5/24/19 16:00,482
5/24/19 16:00,495
5/24/19 16:00,492
5/24/19 16:00,504
5/24/19 16:00,501
5/24/19 16:00,501
5/24/19 16:00,513
5/24/19 16:00,500
5/24/19 16:00,507
5/24/19 16:00,502
5/24/19 16:00,503
5/24/19 16:00,513
5/24/19 16:00,501
5/24/19 16:00,511
5/24/19 16:00,509
5/24/19 16:00,506
5/24/19 16:00,513
5/24/19 16:00,500
5/24/19 16:00,514
5/24/19 16:00,508
5/24/19 16:00,506
5/24/19 16:00,515
5/24/19 16:00,503
5/24/19 16:00,513
5/24/19 16:00,508
5/24/19 16:00,507
5/24/19 16:00,512
5/24/19 16:00,502
5/24/19 16:00,512
5/24/19 16:00,506
5/24/19 16:00,506
5/24/19 16:00,511
5/24/19 16:00,499
5/24/19 16:00,510
5/24/19 16:00,502
5/24/19 16:00,505
5/24/19 16:00,511
5/24/19 16:00,504
5/24/19 16:00,513
5/24/19 16:00,506
5/24/19 16:00,506
5/24/19 16:00,512
5/24/19 16:00,501
5/24/19 16:00,509
5/24/19 16:00,498
5/24/19 16:00,503
5/24/19 16:00,504
5/24/19 16:00,496
5/24/19 16:00,506
5/24/19 16:00,496
5/24/19 16:00,497
5/24/19 16:00,503
5/24/19 16:00,496
5/24/19 16:00,507
5/24/19 16:00,494
5/24/19 16:00,500
5/24/19 16:00,504
5/24/19 16:00,498
5/24/19 16:00,508
5/24/19 16:00,500
5/24/19 16:00,506
5/24/19 16:00,505
5/24/19 16:00,500
5/24/19 16:00,511
5/24/19 16:00,498
5/24/19 16:00,503
5/24/19 16:00,502
5/24/19 16:00,499
5/24/19 16:00,510
5/24/19 16:00,500
5/24/19 16:00,516
5/24/19 16:00,516
5/24/19 16:00,499
5/24/19 16:00,500
5/24/19 16:00,480
5/24/19 16:00,491
5/24/19 16:00,492
5/24/19 16:00,493
5/24/19 16:00,506
5/24/19 16:00,497
5/24/19 16:00,507
5/24/19 16:00,507
5/24/19 16:00,497
5/24/19 16:00,506
5/24/19 16:00,494
5/24/19 16:00,507
5/24/19 16:00,506
5/24/19 16:00,505
5/24/19 16:00,514
5/24/19 16:00,504
5/24/19 16:00,513
5/24/19 16:00,510
5/24/19 16:00,506
5/24/19 16:00,514
5/24/19 16:00,504
5/24/19 16:00,514
5/24/19 16:00,509
5/24/19 16:00,506
5/24/19 16:00,514
5/24/19 16:00,501
5/24/19 16:00,512
5/24/19 16:00,505
5/24/19 16:00,505
5/24/19 16:00,513
5/24/19 16:00,497
5/24/19 16:00,510
5/24/19 16:00,507
5/24/19 16:00,507
5/24/19 16:00,514
5/24/19 16:00,506
5/24/19 16:00,513
5/24/19 16:00,506
5/24/19 16:00,506
5/24/19 16:00,515
5/24/19 16:00,501
5/24/19 16:00,511
5/24/19 16:00,506
5/24/19 16:00,502
5/24/19 16:00,502
5/24/19 16:00,494
5/24/19 16:00,506
5/24/19 16:00,499
5/24/19 16:00,498
5/24/19 16:00,501
5/24/19 16:00,495
5/24/19 16:00,506
5/24/19 16:00,497
5/24/19 16:00,502
5/24/19 16:00,504
5/24/19 16:00,496
5/24/19 16:00,509
5/24/19 16:00,498
5/24/19 16:00,503
5/24/19 16:00,505
5/24/19 16:09,496
5/24/19 16:09,493
5/24/19 16:09,503
5/24/19 16:09,493
5/24/19 16:09,497
5/24/19 16:09,496
5/24/19 16:09,499
5/24/19 16:09,506
5/24/19 16:09,498
5/24/19 16:09,506
5/24/19 16:09,500
5/24/19 16:09,501
5/24/19 16:09,508
5/24/19 16:09,497
5/24/19 16:09,508
5/24/19 16:09,501
5/24/19 16:09,501
5/24/19 16:09,507
5/24/19 16:09,500
5/24/19 16:09,508
5/24/19 16:09,502
5/24/19 16:09,502
5/24/19 16:09,509
5/24/19 16:09,498
5/24/19 16:09,510
5/24/19 16:09,502
5/24/19 16:09,503
5/24/19 16:09,509
5/24/19 16:09,493
5/24/19 16:09,508
5/24/19 16:09,502
5/24/19 16:09,504
5/24/19 16:09,509
5/24/19 16:09,500
5/24/19 16:09,511
5/24/19 16:09,501
5/24/19 16:09,503
5/24/19 16:09,506
5/24/19 16:09,507
5/24/19 16:09,522
5/24/19 16:09,496
5/24/19 16:09,490
5/24/19 16:09,490
5/24/19 16:09,485
5/24/19 16:09,499
5/24/19 16:09,494
5/24/19 16:09,503
5/24/19 16:09,510
5/24/19 16:09,501
5/24/19 16:09,510
5/24/19 16:09,499
5/24/19 16:09,504
5/24/19 16:09,507
5/24/19 16:09,502
5/24/19 16:09,511
5/24/19 16:09,503
5/24/19 16:09,510
5/24/19 16:09,508
5/24/19 16:09,498
5/24/19 16:09,513
5/24/19 16:09,504
5/24/19 16:09,509
5/24/19 16:09,509
5/24/19 16:09,505
5/24/19 16:09,514
5/24/19 16:09,503
5/24/19 16:09,510
5/24/19 16:09,509
5/24/19 16:09,505
5/24/19 16:09,515
5/24/19 16:09,503
5/24/19 16:09,510
5/24/19 16:09,510
5/24/19 16:09,504
5/24/19 16:09,514
5/24/19 16:09,503
5/24/19 16:09,512
5/24/19 16:09,507
5/24/19 16:09,501
5/24/19 16:09,516
5/24/19 16:09,505
5/24/19 16:09,513
5/24/19 16:09,508
5/24/19 16:09,504
5/24/19 16:09,512
5/24/19 16:09,498
5/24/19 16:09,505
5/24/19 16:09,503
5/24/19 16:09,497
5/24/19 16:09,503
5/24/19 16:09,488
5/24/19 16:09,500
5/24/19 16:09,498
5/24/19 16:09,499
5/24/19 16:09,507
5/24/19 16:09,497
5/24/19 16:09,506
5/24/19 16:09,501
5/24/19 16:09,502
5/24/19 16:09,508
5/24/19 16:09,499
5/24/19 16:09,507
5/24/19 16:09,501
5/24/19 16:09,504
5/24/19 16:09,506
5/24/19 16:09,492
5/24/19 16:09,507
5/24/19 16:09,502
5/24/19 16:09,503
5/24/19 16:09,512
5/24/19 16:09,500
5/24/19 16:09,512
5/24/19 16:09,502
5/24/19 16:09,502
5/24/19 16:09,506
5/24/19 16:09,498
5/24/19 16:09,508
5/24/19 16:09,499
5/24/19 16:09,500
5/24/19 16:09,506
5/24/19 16:09,499
5/24/19 16:09,506
5/24/19 16:09,502
5/24/19 16:09,505
5/24/19 16:09,515
5/24/19 16:09,525
5/24/19 16:09,511
5/24/19 16:09,494
5/24/19 16:09,491
5/24/19 16:09,493
5/24/19 16:09,486
5/24/19 16:09,498
5/24/19 16:09,498
5/24/19 16:09,504
5/24/19 16:09,506
5/24/19 16:09,493
5/24/19 16:09,511
5/24/19 16:09,501
5/24/19 16:09,507
5/24/19 16:09,510
5/24/19 16:09,503
5/24/19 16:09,511
5/24/19 16:09,503
5/24/19 16:09,506
5/24/19 16:09,509
5/24/19 16:09,501
5/24/19 16:09,514
5/24/19 16:09,498
5/24/19 16:09,505
5/24/19 16:09,508
5/24/19 16:09,503
5/24/19 16:09,514
5/24/19 16:09,504
5/24/19 16:09,510
5/24/19 16:09,511
5/24/19 16:09,503
5/24/19 16:09,515
5/24/19 16:09,503
5/24/19 16:09,509
5/24/19 16:09,508
5/24/19 16:09,505
5/24/19 16:09,514
5/24/19 16:09,499
5/24/19 16:09,507
5/24/19 16:09,508
5/24/19 16:09,504
5/24/19 16:09,513
5/24/19 16:09,503
5/24/19 16:09,510
5/24/19 16:09,509
5/24/19 16:09,503
5/24/19 16:09,513
5/24/19 16:09,499
5/24/19 16:09,505
5/24/19 16:09,502
5/24/19 16:09,500
5/24/19 16:09,505
5/24/19 16:09,495
5/24/19 16:09,501
5/24/19 16:09,499
5/24/19 16:09,497
5/24/19 16:09,506
5/24/19 16:09,497
5/24/19 16:09,505
5/24/19 16:09,502
5/24/19 16:09,500
5/24/19 16:09,507
5/24/19 16:09,497
5/24/19 16:09,507
5/24/19 16:09,496
5/24/19 16:09,497
5/24/19 16:09,507
5/24/19 16:09,497
5/24/19 16:09,509
5/24/19 16:09,502
5/24/19 16:09,502
5/24/19 16:09,508
5/24/19 16:09,500
5/24/19 16:09,510
5/24/19 16:09,504
5/24/19 16:09,502
5/24/19 16:09,507
5/24/19 16:09,499
5/24/19 16:09,510
5/24/19 16:09,504
5/24/19 16:09,501
5/24/19 16:09,507
5/24/19 16:09,501
5/24/19 16:09,511
5/24/19 16:09,500
5/24/19 16:09,502
5/24/19 16:09,505
5/24/19 16:09,496
5/24/19 16:09,517
5/24/19 16:09,514
5/24/19 16:09,502
5/24/19 16:09,496
5/24/19 16:09,485
5/24/19 16:09,491
5/24/19 16:09,491
5/24/19 16:09,498
5/24/19 16:09,502
5/24/19 16:09,497
5/24/19 16:09,514
5/24/19 16:09,503
5/24/19 16:09,504
5/24/19 16:09,507
5/24/19 16:09,500
5/24/19 16:09,510
5/24/19 16:09,499
5/24/19 16:09,502
5/24/19 16:09,504
5/24/19 16:09,497
5/24/19 16:09,510
5/24/19 16:09,503
5/24/19 16:09,508
5/24/19 16:09,513
5/24/19 16:09,505
5/24/19 16:09,510
5/24/19 16:09,504
5/24/19 16:09,510
5/24/19 16:09,511
5/24/19 16:09,504
5/24/19 16:09,516
5/24/19 16:09,499
5/24/19 16:09,508
5/24/19 16:09,509
5/24/19 16:09,504
5/24/19 16:09,516
5/24/19 16:09,505
5/24/19 16:09,511
5/24/19 16:09,511
5/24/19 16:09,506
5/24/19 16:09,514
5/24/19 16:09,505
5/24/19 16:09,511
5/24/19 16:09,509
5/24/19 16:09,505
5/24/19 16:09,514
5/24/19 16:09,501
5/24/19 16:09,510
5/24/19 16:09,506
5/24/19 16:09,499
5/24/19 16:09,507
5/24/19 16:09,494
5/24/19 16:09,501
5/24/19 16:09,498
5/24/19 16:09,495
5/24/19 16:09,504
5/24/19 16:09,490
5/24/19 16:09,502
5/24/19 16:09,500
5/24/19 16:09,498
5/24/19 16:09,507
5/24/19 16:09,500
5/24/19 16:09,506
5/24/19 16:09,503
5/24/19 16:09,502
5/24/19 16:09,508
5/24/19 16:09,496
5/24/19 16:09,507
5/24/19 16:09,503
5/24/19 16:09,499
5/24/19 16:09,510
5/24/19 16:09,499
5/24/19 16:09,510
5/24/19 16:09,506
5/24/19 16:09,500
5/24/19 16:09,507
5/24/19 16:09,499
5/24/19 16:09,510
5/24/19 16:09,503
5/24/19 16:09,503
5/24/19 16:09,507
5/24/19 16:09,493
5/24/19 16:09,507
5/24/19 16:09,502
5/24/19 16:09,505
5/24/19 16:09,507
5/24/19 16:09,498
5/24/19 16:09,508
5/24/19 16:09,503
5/24/19 16:09,504
5/24/19 16:09,507
5/24/19 16:09,498
5/24/19 16:09,510
5/24/19 16:09,503
5/24/19 16:09,506
5/24/19 16:09,511
5/24/19 16:09,523
5/24/19 16:09,507
5/24/19 16:09,490
5/24/19 16:09,488
5/24/19 16:09,488
5/24/19 16:09,482
5/24/19 16:09,501
5/24/19 16:09,495
5/24/19 16:09,507
5/24/19 16:09,509
5/24/19 16:09,501
5/24/19 16:09,510
5/24/19 16:09,499
5/24/19 16:09,503
5/24/19 16:09,505
5/24/19 16:09,500
5/24/19 16:09,514
5/24/19 16:09,506
5/24/19 16:09,509
5/24/19 16:09,510
5/24/19 16:09,504
5/24/19 16:09,514
5/24/19 16:09,504
5/24/19 16:09,510
5/24/19 16:09,511
5/24/19 16:09,503
5/24/19 16:09,513
5/24/19 16:09,501
5/24/19 16:09,503
5/24/19 16:09,505
5/24/19 16:09,502
5/24/19 16:09,516
5/24/19 16:09,505
5/24/19 16:09,511
5/24/19 16:09,509
5/24/19 16:09,503
5/24/19 16:09,513
5/24/19 16:09,502
5/24/19 16:09,509
5/24/19 16:09,508
5/24/19 16:09,505
5/24/19 16:09,513
5/24/19 16:09,503
5/24/19 16:09,509
5/24/19 16:09,507
5/24/19 16:09,504
5/24/19 16:09,513
5/24/19 16:09,499
5/24/19 16:09,508
5/24/19 16:09,503
5/24/19 16:09,493
5/24/19 16:09,501
5/24/19 16:09,493
5/24/19 16:09,503
5/24/19 16:09,502
5/24/19 16:09,501
5/24/19 16:09,507
5/24/19 16:09,496
5/24/19 16:09,507
5/24/19 16:09,501
5/24/19 16:09,500
5/24/19 16:09,504
5/24/19 16:09,494
5/24/19 16:09,506
5/24/19 16:09,501
5/24/19 16:09,503
5/24/19 16:09,509
5/24/19 16:09,501
5/24/19 16:09,508
5/24/19 16:09,501
5/24/19 16:09,503
5/24/19 16:09,508
5/24/19 16:09,499
5/24/19 16:09,508
5/24/19 16:09,501
5/24/19 16:09,503
5/24/19 16:09,508
5/24/19 16:09,498
5/24/19 16:09,509
5/24/19 16:09,501
5/24/19 16:09,501
5/24/19 16:09,506
5/24/19 16:09,500
5/24/19 16:09,511
5/24/19 16:09,500
5/24/19 16:09,524
5/24/19 16:09,513
5/24/19 16:09,493
5/24/19 16:09,498
5/24/19 16:09,487
5/24/19 16:09,488
5/24/19 16:09,494
5/24/19 16:09,491
5/24/19 16:09,509
5/24/19 16:09,500
5/24/19 16:09,500
5/24/19 16:09,506
5/24/19 16:09,500
5/24/19 16:09,510
5/24/19 16:09,501
5/24/19 16:09,504
5/24/19 16:09,508
5/24/19 16:09,502
5/24/19 16:09,511
5/24/19 16:09,502
5/24/19 16:09,508
5/24/19 16:09,510
5/24/19 16:09,503
5/24/19 16:09,514
5/24/19 16:09,502
5/24/19 16:09,508
5/24/19 16:09,509
5/24/19 16:09,502
5/24/19 16:09,508
5/24/19 16:09,502
5/24/19 16:09,510
5/24/19 16:09,510
5/24/19 16:09,507
5/24/19 16:09,514
5/24/19 16:09,503
5/24/19 16:09,511
5/24/19 16:09,510
5/24/19 16:09,504
5/24/19 16:09,513
5/24/19 16:09,504
5/24/19 16:09,509
5/24/19 16:09,509
5/24/19 16:09,507
5/24/19 16:09,516
5/24/19 16:09,504
5/24/19 16:09,509
5/24/19 16:09,506
5/24/19 16:09,498
5/24/19 16:09,507
5/24/19 16:09,495
5/24/19 16:09,503
5/24/19 16:09,500
5/24/19 16:09,494
5/24/19 16:09,503
5/24/19 16:09,495
5/24/19 16:09,503
5/24/19 16:09,502
5/24/19 16:09,499
5/24/19 16:09,507
5/24/19 16:09,496
5/24/19 16:09,506
5/24/19 16:09,499
5/24/19 16:09,499
5/24/19 16:09,508
5/24/19 16:09,499
5/24/19 16:09,510
5/24/19 16:09,504
5/24/19 16:09,500
5/24/19 16:09,506
5/24/19 16:09,497
5/24/19 16:09,508
5/24/19 16:09,502
5/24/19 16:09,504
5/24/19 16:09,510
5/24/19 16:09,498
5/24/19 16:09,505
5/24/19 16:09,502
5/24/19 16:09,503
5/24/19 16:09,510
5/24/19 16:09,500
5/24/19 16:09,510
5/24/19 16:09,500
5/24/19 16:09,503
5/24/19 16:09,506
5/24/19 16:09,498
5/24/19 16:09,506
5/24/19 16:09,499
5/24/19 16:09,505
5/24/19 16:09,534
5/24/19 16:09,500
5/24/19 16:09,503
5/24/19 16:09,487
5/24/19 16:09,485
5/24/19 16:09,490
5/24/19 16:09,491
5/24/19 16:09,504
5/24/19 16:09,500
5/24/19 16:09,506
5/24/19 16:09,508
5/24/19 16:09,499
5/24/19 16:09,507
5/24/19 16:09,500
5/24/19 16:09,512
5/24/19 16:09,509
5/24/19 16:09,500
5/24/19 16:09,509
5/24/19 16:09,504
5/24/19 16:09,508
5/24/19 16:09,509
5/24/19 16:09,502
5/24/19 16:09,512
5/24/19 16:09,500
5/24/19 16:09,507
5/24/19 16:09,511
5/24/19 16:09,502
5/24/19 16:09,513
5/24/19 16:09,504
5/24/19 16:09,509
5/24/19 16:09,509
5/24/19 16:09,503
5/24/19 16:09,512
5/24/19 16:09,501
5/24/19 16:09,508
5/24/19 16:09,509
5/24/19 16:09,505
5/24/19 16:09,514
5/24/19 16:09,503
5/24/19 16:09,510
5/24/19 16:09,510
5/24/19 16:09,504
5/24/19 16:09,515
5/24/19 16:09,503
5/24/19 16:09,512
5/24/19 16:09,503
5/24/19 16:09,500
5/24/19 16:09,511
5/24/19 16:09,503
5/24/19 16:09,510
5/24/19 16:09,501
5/24/19 16:09,500
5/24/19 16:09,505
5/24/19 16:09,493
5/24/19 16:09,504
5/24/19 16:09,501
5/24/19 16:09,497
5/24/19 16:09,505
5/24/19 16:09,492
5/24/19 16:09,504
5/24/19 16:09,502
5/24/19 16:09,499
5/24/19 16:09,508
5/24/19 16:09,497
5/24/19 16:09,506
5/24/19 16:09,502
5/24/19 16:09,500
5/24/19 16:09,509
5/24/19 16:09,498
5/24/19 16:09,509
5/24/19 16:09,505
5/24/19 16:09,499
5/24/19 16:09,508
5/24/19 16:09,500
5/24/19 16:09,511
5/24/19 16:09,502
5/24/19 16:09,502
5/24/19 16:09,509
5/24/19 16:09,497
5/24/19 16:09,510
5/24/19 16:09,500
5/24/19 16:09,501
5/24/19 16:09,507
5/24/19 16:09,501
5/24/19 16:09,510
5/24/19 16:09,502
5/24/19 16:09,502
5/24/19 16:09,508
5/24/19 16:09,526
5/24/19 16:09,509
5/24/19 16:09,495
5/24/19 16:09,491
5/24/19 16:09,490
5/24/19 16:09,484
5/24/19 16:09,497
5/24/19 16:09,494
5/24/19 16:09,504
5/24/19 16:09,508
5/24/19 16:09,502
5/24/19 16:09,510
5/24/19 16:09,503
5/24/19 16:09,522
5/24/19 16:09,514
5/24/19 16:09,499
5/24/19 16:09,508
5/24/19 16:09,499
5/24/19 16:09,500
5/24/19 16:09,505
5/24/19 16:09,499
5/24/19 16:09,512
5/24/19 16:09,500
5/24/19 16:09,506
5/24/19 16:09,507
5/24/19 16:09,503
5/24/19 16:09,514
5/24/19 16:09,502
5/24/19 16:09,511
5/24/19 16:09,511
5/24/19 16:18,508
5/24/19 16:18,508
5/24/19 16:18,497
5/24/19 16:18,499
5/24/19 16:18,504
5/24/19 16:18,501
5/24/19 16:18,511
5/24/19 16:18,501
5/24/19 16:18,508
5/24/19 16:18,507
5/24/19 16:18,502
5/24/19 16:18,509
5/24/19 16:18,500
5/24/19 16:18,504
5/24/19 16:18,506
5/24/19 16:18,504
5/24/19 16:18,513
5/24/19 16:18,502
5/24/19 16:18,510
5/24/19 16:18,509
5/24/19 16:18,503
5/24/19 16:18,513
5/24/19 16:18,502
5/24/19 16:18,513
5/24/19 16:18,507
5/24/19 16:18,504
5/24/19 16:18,513
5/24/19 16:18,502
5/24/19 16:18,510
5/24/19 16:18,507
5/24/19 16:18,503
5/24/19 16:18,513
5/24/19 16:18,503
5/24/19 16:18,513
5/24/19 16:18,506
5/24/19 16:18,499
5/24/19 16:18,509
5/24/19 16:18,495
5/24/19 16:18,503
5/24/19 16:18,502
5/24/19 16:18,495
5/24/19 16:18,505
5/24/19 16:18,496
5/24/19 16:18,505
5/24/19 16:18,500
5/24/19 16:18,500
5/24/19 16:18,503
5/24/19 16:18,495
5/24/19 16:18,508
5/24/19 16:18,501
5/24/19 16:18,503
5/24/19 16:18,509
5/24/19 16:18,496
5/24/19 16:18,508
5/24/19 16:18,503
5/24/19 16:18,503
5/24/19 16:18,509
5/24/19 16:18,498
5/24/19 16:18,509
5/24/19 16:18,499
5/24/19 16:18,504
5/24/19 16:18,510
5/24/19 16:18,499
5/24/19 16:18,509
5/24/19 16:18,501
5/24/19 16:18,504
