X,Bin ECG
12/13/18 14:09,515
12/13/18 14:09,515
12/13/18 14:09,511
12/13/18 14:09,513
12/13/18 14:09,510
12/13/18 14:09,511
12/13/18 14:09,509
12/13/18 14:09,512
12/13/18 14:09,505
12/13/18 14:09,489
12/13/18 14:09,498
12/13/18 14:09,505
12/13/18 14:09,507
12/13/18 14:09,510
12/13/18 14:09,493
12/13/18 14:09,516
12/13/18 14:09,518
12/13/18 14:09,514
12/13/18 14:09,511
12/13/18 14:09,506
12/13/18 14:09,505
12/13/18 14:09,554
12/13/18 14:09,632
12/13/18 14:09,522
12/13/18 14:09,527
12/13/18 14:09,518
12/13/18 14:09,495
12/13/18 14:09,484
12/13/18 14:09,475
12/13/18 14:09,459
12/13/18 14:09,457
12/13/18 14:09,459
12/13/18 14:09,461
12/13/18 14:09,458
12/13/18 14:09,440
12/13/18 14:09,475
12/13/18 14:09,489
12/13/18 14:09,498
12/13/18 14:09,501
12/13/18 14:09,502
12/13/18 14:09,505
12/13/18 14:09,506
12/13/18 14:09,510
12/13/18 14:09,510
12/13/18 14:09,511
12/13/18 14:09,513
12/13/18 14:09,512
12/13/18 14:09,513
12/13/18 14:09,511
12/13/18 14:09,511
12/13/18 14:09,513
12/13/18 14:09,484
12/13/18 14:09,485
12/13/18 14:09,513
12/13/18 14:09,520
12/13/18 14:09,521
12/13/18 14:09,520
12/13/18 14:09,518
12/13/18 14:09,511
12/13/18 14:09,486
12/13/18 14:09,506
12/13/18 14:09,517
12/13/18 14:09,502
12/13/18 14:09,527
12/13/18 14:09,527
12/13/18 14:09,523
12/13/18 14:09,516
12/13/18 14:09,512
12/13/18 14:09,506
12/13/18 14:09,500
12/13/18 14:09,480
12/13/18 14:09,474
12/13/18 14:09,504
12/13/18 14:09,499
12/13/18 14:09,585
12/13/18 14:09,588
12/13/18 14:09,541
12/13/18 14:09,524
12/13/18 14:09,505
12/13/18 14:09,451
12/13/18 14:09,469
12/13/18 14:09,475
12/13/18 14:09,476
12/13/18 14:09,472
12/13/18 14:09,469
12/13/18 14:09,469
12/13/18 14:09,465
12/13/18 14:09,451
12/13/18 14:09,466
12/13/18 14:09,478
12/13/18 14:09,487
12/13/18 14:09,482
12/13/18 14:09,509
12/13/18 14:09,515
12/13/18 14:09,517
12/13/18 14:09,520
12/13/18 14:09,518
12/13/18 14:09,516
12/13/18 14:09,515
12/13/18 14:09,514
12/13/18 14:09,514
12/13/18 14:09,513
12/13/18 14:09,497
12/13/18 14:09,507
12/13/18 14:09,517
12/13/18 14:09,510
12/13/18 14:09,497
12/13/18 14:09,504
12/13/18 14:09,509
12/13/18 14:09,515
12/13/18 14:09,514
12/13/18 14:09,514
12/13/18 14:09,515
12/13/18 14:09,514
12/13/18 14:09,510
12/13/18 14:09,509
12/13/18 14:09,507
12/13/18 14:09,505
12/13/18 14:09,503
12/13/18 14:09,483
12/13/18 14:09,506
12/13/18 14:09,510
12/13/18 14:09,512
12/13/18 14:09,506
12/13/18 14:09,493
12/13/18 14:09,493
12/13/18 14:09,501
12/13/18 14:09,552
12/13/18 14:09,588
12/13/18 14:09,556
12/13/18 14:09,537
12/13/18 14:09,517
12/13/18 14:09,494
12/13/18 14:09,480
12/13/18 14:09,458
12/13/18 14:09,435
12/13/18 14:09,463
12/13/18 14:09,473
12/13/18 14:09,475
12/13/18 14:09,475
12/13/18 14:09,475
12/13/18 14:09,477
12/13/18 14:09,484
12/13/18 14:09,487
12/13/18 14:09,492
12/13/18 14:09,498
12/13/18 14:09,500
12/13/18 14:09,504
12/13/18 14:09,493
12/13/18 14:09,502
12/13/18 14:09,518
12/13/18 14:09,520
12/13/18 14:09,521
12/13/18 14:09,518
12/13/18 14:09,515
12/13/18 14:09,514
12/13/18 14:09,514
12/13/18 14:09,506
12/13/18 14:09,495
12/13/18 14:09,499
12/13/18 14:09,505
12/13/18 14:09,508
12/13/18 14:09,491
12/13/18 14:09,516
12/13/18 14:09,522
12/13/18 14:09,525
12/13/18 14:09,520
12/13/18 14:09,517
12/13/18 14:09,513
12/13/18 14:09,510
12/13/18 14:09,506
12/13/18 14:09,475
12/13/18 14:09,491
12/13/18 14:09,505
12/13/18 14:09,511
12/13/18 14:09,511
12/13/18 14:09,511
12/13/18 14:09,512
12/13/18 14:09,504
12/13/18 14:09,521
12/13/18 14:09,635
12/13/18 14:09,549
12/13/18 14:09,530
12/13/18 14:09,514
12/13/18 14:09,494
12/13/18 14:09,478
12/13/18 14:09,472
12/13/18 14:09,451
12/13/18 14:09,455
12/13/18 14:09,459
12/13/18 14:09,467
12/13/18 14:09,472
12/13/18 14:09,477
12/13/18 14:09,476
12/13/18 14:09,467
12/13/18 14:09,479
12/13/18 14:09,499
12/13/18 14:09,508
12/13/18 14:09,507
12/13/18 14:09,511
12/13/18 14:09,509
12/13/18 14:09,495
12/13/18 14:09,482
12/13/18 14:09,514
12/13/18 14:09,525
12/13/18 14:09,524
12/13/18 14:09,524
12/13/18 14:09,520
12/13/18 14:09,517
12/13/18 14:09,517
12/13/18 14:09,511
12/13/18 14:09,508
12/13/18 14:09,507
12/13/18 14:09,507
12/13/18 14:09,508
12/13/18 14:09,508
12/13/18 14:09,490
12/13/18 14:09,511
12/13/18 14:09,516
12/13/18 14:09,517
12/13/18 14:09,515
12/13/18 14:09,511
12/13/18 14:09,509
12/13/18 14:09,505
12/13/18 14:09,503
12/13/18 14:09,488
12/13/18 14:09,489
12/13/18 14:09,493
12/13/18 14:09,500
12/13/18 14:09,490
12/13/18 14:09,500
12/13/18 14:09,538
12/13/18 14:09,631
12/13/18 14:09,566
12/13/18 14:09,544
12/13/18 14:09,521
12/13/18 14:09,502
12/13/18 14:09,485
12/13/18 14:09,468
12/13/18 14:09,463
12/13/18 14:09,459
12/13/18 14:09,461
12/13/18 14:09,461
12/13/18 14:09,463
12/13/18 14:09,456
12/13/18 14:09,441
12/13/18 14:09,475
12/13/18 14:09,496
12/13/18 14:09,501
12/13/18 14:09,506
12/13/18 14:09,505
12/13/18 14:09,512
12/13/18 14:09,513
12/13/18 14:09,513
12/13/18 14:09,516
12/13/18 14:09,513
12/13/18 14:09,510
12/13/18 14:09,513
12/13/18 14:09,513
12/13/18 14:09,513
12/13/18 14:09,512
12/13/18 14:09,503
12/13/18 14:09,484
12/13/18 14:09,509
12/13/18 14:09,513
12/13/18 14:09,518
12/13/18 14:09,520
12/13/18 14:09,520
12/13/18 14:09,517
12/13/18 14:09,517
12/13/18 14:09,514
12/13/18 14:09,494
12/13/18 14:09,514
12/13/18 14:09,506
12/13/18 14:09,505
12/13/18 14:09,507
12/13/18 14:09,509
12/13/18 14:09,510
12/13/18 14:09,507
12/13/18 14:09,505
12/13/18 14:09,502
12/13/18 14:09,503
12/13/18 14:09,499
12/13/18 14:09,498
12/13/18 14:09,571
12/13/18 14:09,551
12/13/18 14:09,538
12/13/18 14:09,524
12/13/18 14:09,509
12/13/18 14:09,492
12/13/18 14:09,481
12/13/18 14:09,475
12/13/18 14:09,458
12/13/18 14:09,455
12/13/18 14:09,459
12/13/18 14:09,460
12/13/18 14:09,470
12/13/18 14:09,473
12/13/18 14:09,478
12/13/18 14:09,465
12/13/18 14:09,490
12/13/18 14:09,504
12/13/18 14:09,509
12/13/18 14:09,509
12/13/18 14:09,511
12/13/18 14:09,493
12/13/18 14:09,502
12/13/18 14:09,512
12/13/18 14:09,518
12/13/18 14:09,517
12/13/18 14:09,504
12/13/18 14:09,506
12/13/18 14:09,525
12/13/18 14:09,524
12/13/18 14:09,521
12/13/18 14:09,517
12/13/18 14:09,513
12/13/18 14:09,511
12/13/18 14:09,508
12/13/18 14:09,510
12/13/18 14:09,506
12/13/18 14:09,492
12/13/18 14:09,483
12/13/18 14:09,513
12/13/18 14:09,519
12/13/18 14:09,516
12/13/18 14:09,515
12/13/18 14:09,513
12/13/18 14:09,508
12/13/18 14:09,507
12/13/18 14:09,503
12/13/18 14:09,504
12/13/18 14:09,503
12/13/18 14:09,501
12/13/18 14:09,500
12/13/18 14:09,498
12/13/18 14:09,558
12/13/18 14:09,619
12/13/18 14:09,539
12/13/18 14:09,527
12/13/18 14:09,507
12/13/18 14:09,481
12/13/18 14:09,463
12/13/18 14:09,462
12/13/18 14:09,468
12/13/18 14:09,469
12/13/18 14:09,470
12/13/18 14:09,469
12/13/18 14:09,470
12/13/18 14:09,473
12/13/18 14:09,477
12/13/18 14:09,483
12/13/18 14:09,484
12/13/18 14:09,490
12/13/18 14:09,497
12/13/18 14:09,480
12/13/18 14:09,509
12/13/18 14:09,516
12/13/18 14:09,517
12/13/18 14:09,505
12/13/18 14:09,510
12/13/18 14:09,515
12/13/18 14:09,518
12/13/18 14:09,519
12/13/18 14:09,519
12/13/18 14:09,515
12/13/18 14:09,517
12/13/18 14:09,510
12/13/18 14:09,509
12/13/18 14:09,511
12/13/18 14:09,503
12/13/18 14:09,500
12/13/18 14:09,517
12/13/18 14:09,519
12/13/18 14:09,517
12/13/18 14:09,515
12/13/18 14:09,514
12/13/18 14:09,509
12/13/18 14:09,507
12/13/18 14:09,499
12/13/18 14:09,478
12/13/18 14:09,501
12/13/18 14:09,507
12/13/18 14:09,510
12/13/18 14:09,510
12/13/18 14:09,508
12/13/18 14:09,504
12/13/18 14:09,501
12/13/18 14:09,552
12/13/18 14:09,635
12/13/18 14:09,543
12/13/18 14:09,510
12/13/18 14:09,507
12/13/18 14:09,495
12/13/18 14:09,472
12/13/18 14:09,471
12/13/18 14:09,470
12/13/18 14:09,468
12/13/18 14:09,467
12/13/18 14:09,469
12/13/18 14:09,468
12/13/18 14:09,470
12/13/18 14:09,475
12/13/18 14:09,479
12/13/18 14:09,469
12/13/18 14:09,482
12/13/18 14:09,474
12/13/18 14:09,502
12/13/18 14:09,518
12/13/18 14:09,522
12/13/18 14:09,520
12/13/18 14:09,520
12/13/18 14:09,519
12/13/18 14:09,518
12/13/18 14:09,516
12/13/18 14:09,516
12/13/18 14:09,516
12/13/18 14:09,513
12/13/18 14:09,512
12/13/18 14:09,509
12/13/18 14:09,507
12/13/18 14:09,504
12/13/18 14:09,483
12/13/18 14:09,497
12/13/18 14:09,512
12/13/18 14:09,516
12/13/18 14:09,518
12/13/18 14:09,518
12/13/18 14:09,518
12/13/18 14:09,512
12/13/18 14:09,511
12/13/18 14:09,509
12/13/18 14:09,506
12/13/18 14:09,503
12/13/18 14:09,503
12/13/18 14:09,497
12/13/18 14:09,488
12/13/18 14:09,492
12/13/18 14:09,503
12/13/18 14:09,509
12/13/18 14:09,507
12/13/18 14:09,490
12/13/18 14:09,587
12/13/18 14:09,600
12/13/18 14:09,541
12/13/18 14:09,525
12/13/18 14:09,506
12/13/18 14:09,486
12/13/18 14:09,476
12/13/18 14:09,468
12/13/18 14:09,458
12/13/18 14:09,449
12/13/18 14:09,467
12/13/18 14:09,470
12/13/18 14:09,473
12/13/18 14:09,474
12/13/18 14:09,478
12/13/18 14:09,482
12/13/18 14:09,474
12/13/18 14:09,481
12/13/18 14:09,486
12/13/18 14:09,494
12/13/18 14:09,510
12/13/18 14:09,506
12/13/18 14:09,513
12/13/18 14:09,520
12/13/18 14:09,523
12/13/18 14:09,522
12/13/18 14:09,521
12/13/18 14:09,520
12/13/18 14:09,519
12/13/18 14:09,514
12/13/18 14:09,499
12/13/18 14:09,518
12/13/18 14:09,518
12/13/18 14:09,517
12/13/18 14:09,518
12/13/18 14:09,510
12/13/18 14:09,513
12/13/18 14:09,509
12/13/18 14:09,508
12/13/18 14:09,507
12/13/18 14:09,507
12/13/18 14:09,505
12/13/18 14:09,502
12/13/18 14:09,502
12/13/18 14:09,468
12/13/18 14:09,493
12/13/18 14:09,508
12/13/18 14:09,511
12/13/18 14:09,511
12/13/18 14:09,510
12/13/18 14:09,508
12/13/18 14:09,498
12/13/18 14:09,563
12/13/18 14:09,617
12/13/18 14:09,538
12/13/18 14:09,527
12/13/18 14:09,509
12/13/18 14:09,471
12/13/18 14:09,474
12/13/18 14:09,481
12/13/18 14:09,474
12/13/18 14:09,471
12/13/18 14:09,469
12/13/18 14:09,465
12/13/18 14:09,467
12/13/18 14:09,466
12/13/18 14:09,472
12/13/18 14:09,476
12/13/18 14:09,469
12/13/18 14:09,481
12/13/18 14:09,494
12/13/18 14:09,502
12/13/18 14:09,489
12/13/18 14:09,511
12/13/18 14:09,522
12/13/18 14:09,524
12/13/18 14:09,522
12/13/18 14:09,507
12/13/18 14:09,485
12/13/18 14:09,516
12/13/18 14:09,527
12/13/18 14:09,528
12/13/18 14:09,525
12/13/18 14:09,521
12/13/18 14:09,516
12/13/18 14:09,513
12/13/18 14:09,510
12/13/18 14:09,508
12/13/18 14:09,507
12/13/18 14:09,508
12/13/18 14:09,509
12/13/18 14:09,508
12/13/18 14:09,506
12/13/18 14:09,508
12/13/18 14:09,504
12/13/18 14:09,502
12/13/18 14:09,490
12/13/18 14:09,493
12/13/18 14:09,501
12/13/18 14:09,503
12/13/18 14:09,504
12/13/18 14:09,506
12/13/18 14:09,507
12/13/18 14:09,500
12/13/18 14:09,485
12/13/18 14:09,534
12/13/18 14:09,644
12/13/18 14:09,560
12/13/18 14:09,542
12/13/18 14:09,521
12/13/18 14:09,500
12/13/18 14:09,486
12/13/18 14:09,477
12/13/18 14:09,471
12/13/18 14:09,448
12/13/18 14:09,460
12/13/18 14:09,472
12/13/18 14:09,473
12/13/18 14:09,474
12/13/18 14:09,472
12/13/18 14:09,462
12/13/18 14:09,471
12/13/18 14:09,465
12/13/18 14:09,494
12/13/18 14:09,510
12/13/18 14:09,516
12/13/18 14:09,517
12/13/18 14:09,516
12/13/18 14:09,516
12/13/18 14:09,516
12/13/18 14:09,516
12/13/18 14:09,515
12/13/18 14:09,511
12/13/18 14:09,494
12/13/18 14:09,507
12/13/18 14:09,504
12/13/18 14:09,508
12/13/18 14:09,511
12/13/18 14:09,513
12/13/18 14:09,514
12/13/18 14:09,514
12/13/18 14:09,515
12/13/18 14:09,511
12/13/18 14:09,512
12/13/18 14:09,511
12/13/18 14:09,510
12/13/18 14:09,511
12/13/18 14:09,508
12/13/18 14:09,509
12/13/18 14:09,503
12/13/18 14:09,484
12/13/18 14:09,487
12/13/18 14:09,501
12/13/18 14:09,508
12/13/18 14:09,510
12/13/18 14:09,508
12/13/18 14:09,507
12/13/18 14:09,493
12/13/18 14:18,461
12/13/18 14:18,464
12/13/18 14:18,480
12/13/18 14:18,495
12/13/18 14:18,501
12/13/18 14:18,503
12/13/18 14:18,505
12/13/18 14:18,502
12/13/18 14:18,479
12/13/18 14:18,503
12/13/18 14:18,513
12/13/18 14:18,523
12/13/18 14:18,525
12/13/18 14:18,520
12/13/18 14:18,519
12/13/18 14:18,516
12/13/18 14:18,498
12/13/18 14:18,519
12/13/18 14:18,521
12/13/18 14:18,518
12/13/18 14:18,509
12/13/18 14:18,474
12/13/18 14:18,504
12/13/18 14:18,517
12/13/18 14:18,520
12/13/18 14:18,520
12/13/18 14:18,517
12/13/18 14:18,515
12/13/18 14:18,513
12/13/18 14:18,509
12/13/18 14:18,507
12/13/18 14:18,503
12/13/18 14:18,499
12/13/18 14:18,461
12/13/18 14:18,492
12/13/18 14:18,506
12/13/18 14:18,514
12/13/18 14:18,511
12/13/18 14:18,542
12/13/18 14:18,632
12/13/18 14:18,550
12/13/18 14:18,532
12/13/18 14:18,512
12/13/18 14:18,493
12/13/18 14:18,466
12/13/18 14:18,467
12/13/18 14:18,462
12/13/18 14:18,462
12/13/18 14:18,467
12/13/18 14:18,452
12/13/18 14:18,466
12/13/18 14:18,479
12/13/18 14:18,469
12/13/18 14:18,456
12/13/18 14:18,495
12/13/18 14:18,510
12/13/18 14:18,516
12/13/18 14:18,512
12/13/18 14:18,513
12/13/18 14:18,512
12/13/18 14:18,514
12/13/18 14:18,513
12/13/18 14:18,511
12/13/18 14:18,487
12/13/18 14:18,508
12/13/18 14:18,506
12/13/18 14:18,507
12/13/18 14:18,514
12/13/18 14:18,517
12/13/18 14:18,514
12/13/18 14:18,513
12/13/18 14:18,514
12/13/18 14:18,510
12/13/18 14:18,486
12/13/18 14:18,501
12/13/18 14:18,503
12/13/18 14:18,512
12/13/18 14:18,516
12/13/18 14:18,520
12/13/18 14:18,519
12/13/18 14:18,514
12/13/18 14:18,510
12/13/18 14:18,508
12/13/18 14:18,509
12/13/18 14:18,505
12/13/18 14:18,502
12/13/18 14:18,500
12/13/18 14:18,478
12/13/18 14:18,501
12/13/18 14:18,512
12/13/18 14:18,510
12/13/18 14:18,562
12/13/18 14:18,615
12/13/18 14:18,517
12/13/18 14:18,502
12/13/18 14:18,514
12/13/18 14:18,504
12/13/18 14:18,489
12/13/18 14:18,480
12/13/18 14:18,470
12/13/18 14:18,467
12/13/18 14:18,467
12/13/18 14:18,465
12/13/18 14:18,465
12/13/18 14:18,440
12/13/18 14:18,458
12/13/18 14:18,480
12/13/18 14:18,492
12/13/18 14:18,500
12/13/18 14:18,503
12/13/18 14:18,508
12/13/18 14:18,508
12/13/18 14:18,502
12/13/18 14:18,497
12/13/18 14:18,519
12/13/18 14:18,524
12/13/18 14:18,523
12/13/18 14:18,516
12/13/18 14:18,517
12/13/18 14:18,514
12/13/18 14:18,514
12/13/18 14:18,510
12/13/18 14:18,507
12/13/18 14:18,507
12/13/18 14:18,503
12/13/18 14:18,495
12/13/18 14:18,493
12/13/18 14:18,500
12/13/18 14:18,509
12/13/18 14:18,489
12/13/18 14:18,520
12/13/18 14:18,527
12/13/18 14:18,527
12/13/18 14:18,521
12/13/18 14:18,514
12/13/18 14:18,511
12/13/18 14:18,506
12/13/18 14:18,504
12/13/18 14:18,503
12/13/18 14:18,500
12/13/18 14:18,501
12/13/18 14:18,478
12/13/18 14:18,503
12/13/18 14:18,509
12/13/18 14:18,480
12/13/18 14:18,607
12/13/18 14:18,554
12/13/18 14:18,516
12/13/18 14:18,529
12/13/18 14:18,517
12/13/18 14:18,498
12/13/18 14:18,485
12/13/18 14:18,476
12/13/18 14:18,473
12/13/18 14:18,461
12/13/18 14:18,425
12/13/18 14:18,460
12/13/18 14:18,475
12/13/18 14:18,482
12/13/18 14:18,488
12/13/18 14:18,491
12/13/18 14:18,489
12/13/18 14:18,494
12/13/18 14:18,498
12/13/18 14:18,498
12/13/18 14:18,506
12/13/18 14:18,507
12/13/18 14:18,508
12/13/18 14:18,511
12/13/18 14:18,491
12/13/18 14:18,508
12/13/18 14:18,521
12/13/18 14:18,506
12/13/18 14:18,512
12/13/18 14:18,517
12/13/18 14:18,517
12/13/18 14:18,514
12/13/18 14:18,513
12/13/18 14:18,505
12/13/18 14:18,497
12/13/18 14:18,520
12/13/18 14:18,522
12/13/18 14:18,521
12/13/18 14:18,518
12/13/18 14:18,515
12/13/18 14:18,513
12/13/18 14:18,510
12/13/18 14:18,494
12/13/18 14:18,490
12/13/18 14:18,498
12/13/18 14:18,503
12/13/18 14:18,504
12/13/18 14:18,503
12/13/18 14:18,505
12/13/18 14:18,505
12/13/18 14:18,507
12/13/18 14:18,505
12/13/18 14:18,544
12/13/18 14:18,598
12/13/18 14:18,549
12/13/18 14:18,538
12/13/18 14:18,518
12/13/18 14:18,494
12/13/18 14:18,481
12/13/18 14:18,475
12/13/18 14:18,471
12/13/18 14:18,466
12/13/18 14:18,462
12/13/18 14:18,463
12/13/18 14:18,463
12/13/18 14:18,466
12/13/18 14:18,470
12/13/18 14:18,456
12/13/18 14:18,467
12/13/18 14:18,490
12/13/18 14:18,503
12/13/18 14:18,510
12/13/18 14:18,513
12/13/18 14:18,514
12/13/18 14:18,515
12/13/18 14:18,516
12/13/18 14:18,514
12/13/18 14:18,515
12/13/18 14:18,514
12/13/18 14:18,514
12/13/18 14:18,483
12/13/18 14:18,500
12/13/18 14:18,521
12/13/18 14:18,522
12/13/18 14:18,518
12/13/18 14:18,519
12/13/18 14:18,516
12/13/18 14:18,515
12/13/18 14:18,511
12/13/18 14:18,511
12/13/18 14:18,495
12/13/18 14:18,483
12/13/18 14:18,513
12/13/18 14:18,521
12/13/18 14:18,521
12/13/18 14:18,520
12/13/18 14:18,515
12/13/18 14:18,511
12/13/18 14:18,506
12/13/18 14:18,503
12/13/18 14:18,479
12/13/18 14:18,505
12/13/18 14:18,512
12/13/18 14:18,509
12/13/18 14:18,523
12/13/18 14:18,583
12/13/18 14:18,558
12/13/18 14:18,537
12/13/18 14:18,518
12/13/18 14:18,501
12/13/18 14:18,486
12/13/18 14:18,475
12/13/18 14:18,452
12/13/18 14:18,459
12/13/18 14:18,462
12/13/18 14:18,468
12/13/18 14:18,471
12/13/18 14:18,475
12/13/18 14:18,477
12/13/18 14:18,481
12/13/18 14:18,487
12/13/18 14:18,491
12/13/18 14:18,494
12/13/18 14:18,498
12/13/18 14:18,481
12/13/18 14:18,503
12/13/18 14:18,518
12/13/18 14:18,503
12/13/18 14:18,502
12/13/18 14:18,513
12/13/18 14:18,517
12/13/18 14:18,517
12/13/18 14:18,519
12/13/18 14:18,518
12/13/18 14:18,516
12/13/18 14:18,516
12/13/18 14:18,509
12/13/18 14:18,511
12/13/18 14:18,489
12/13/18 14:18,505
12/13/18 14:18,516
12/13/18 14:18,518
12/13/18 14:18,520
12/13/18 14:18,515
12/13/18 14:18,499
12/13/18 14:18,501
12/13/18 14:18,494
12/13/18 14:18,498
12/13/18 14:18,518
12/13/18 14:18,522
12/13/18 14:18,517
12/13/18 14:18,509
12/13/18 14:18,508
12/13/18 14:18,503
12/13/18 14:18,502
12/13/18 14:18,502
12/13/18 14:18,499
12/13/18 14:18,461
12/13/18 14:18,459
12/13/18 14:18,607
12/13/18 14:18,579
12/13/18 14:18,542
12/13/18 14:18,527
12/13/18 14:18,507
12/13/18 14:18,475
12/13/18 14:18,464
12/13/18 14:18,466
12/13/18 14:18,465
12/13/18 14:18,453
12/13/18 14:18,476
12/13/18 14:18,479
12/13/18 14:18,478
12/13/18 14:18,464
12/13/18 14:18,471
12/13/18 14:18,482
12/13/18 14:18,492
12/13/18 14:18,496
12/13/18 14:18,502
12/13/18 14:18,503
12/13/18 14:18,509
12/13/18 14:18,512
12/13/18 14:18,505
12/13/18 14:18,502
12/13/18 14:18,522
12/13/18 14:18,526
12/13/18 14:18,521
12/13/18 14:18,502
12/13/18 14:18,485
12/13/18 14:18,518
12/13/18 14:18,524
12/13/18 14:18,523
12/13/18 14:18,523
12/13/18 14:18,519
12/13/18 14:18,514
12/13/18 14:18,511
12/13/18 14:18,509
12/13/18 14:18,505
12/13/18 14:18,493
12/13/18 14:18,473
12/13/18 14:18,507
12/13/18 14:18,523
12/13/18 14:18,524
12/13/18 14:18,520
12/13/18 14:18,513
12/13/18 14:18,510
12/13/18 14:18,507
12/13/18 14:18,504
12/13/18 14:18,503
12/13/18 14:18,499
12/13/18 14:18,497
12/13/18 14:18,477
12/13/18 14:18,486
12/13/18 14:18,587
12/13/18 14:18,582
12/13/18 14:18,546
12/13/18 14:18,518
12/13/18 14:18,494
12/13/18 14:18,496
12/13/18 14:18,489
12/13/18 14:18,483
12/13/18 14:18,476
12/13/18 14:18,469
12/13/18 14:18,462
12/13/18 14:18,464
12/13/18 14:18,466
12/13/18 14:18,468
12/13/18 14:18,472
12/13/18 14:18,470
12/13/18 14:18,443
12/13/18 14:18,486
12/13/18 14:18,506
12/13/18 14:18,514
12/13/18 14:18,517
12/13/18 14:18,515
12/13/18 14:18,516
12/13/18 14:18,516
12/13/18 14:18,515
12/13/18 14:18,514
12/13/18 14:18,514
12/13/18 14:18,515
12/13/18 14:18,513
12/13/18 14:18,514
12/13/18 14:18,512
12/13/18 14:18,491
12/13/18 14:18,503
12/13/18 14:18,506
12/13/18 14:18,501
12/13/18 14:18,509
12/13/18 14:18,514
12/13/18 14:18,519
12/13/18 14:18,516
12/13/18 14:18,499
12/13/18 14:18,506
12/13/18 14:18,509
12/13/18 14:18,519
12/13/18 14:18,515
12/13/18 14:18,514
12/13/18 14:18,514
12/13/18 14:18,509
12/13/18 14:18,505
12/13/18 14:18,502
12/13/18 14:18,495
12/13/18 14:18,486
12/13/18 14:18,489
12/13/18 14:18,517
12/13/18 14:18,604
12/13/18 14:18,574
12/13/18 14:18,543
12/13/18 14:18,525
12/13/18 14:18,508
12/13/18 14:18,488
12/13/18 14:18,476
12/13/18 14:18,473
12/13/18 14:18,467
12/13/18 14:18,465
12/13/18 14:18,439
12/13/18 14:18,456
12/13/18 14:18,458
12/13/18 14:18,471
12/13/18 14:18,484
12/13/18 14:18,489
12/13/18 14:18,494
12/13/18 14:18,497
12/13/18 14:18,499
12/13/18 14:18,503
12/13/18 14:18,503
12/13/18 14:18,495
12/13/18 14:18,502
12/13/18 14:18,502
12/13/18 14:18,514
12/13/18 14:18,518
12/13/18 14:18,522
12/13/18 14:18,523
12/13/18 14:18,523
12/13/18 14:18,518
12/13/18 14:18,515
12/13/18 14:18,512
12/13/18 14:18,485
12/13/18 14:18,495
12/13/18 14:18,508
12/13/18 14:18,514
12/13/18 14:18,518
12/13/18 14:18,516
12/13/18 14:18,517
12/13/18 14:18,518
12/13/18 14:18,515
12/13/18 14:18,513
12/13/18 14:18,511
12/13/18 14:18,508
12/13/18 14:18,505
12/13/18 14:18,477
12/13/18 14:18,484
12/13/18 14:18,502
12/13/18 14:18,509
12/13/18 14:18,509
12/13/18 14:18,508
12/13/18 14:18,509
12/13/18 14:18,508
12/13/18 14:18,516
12/13/18 14:18,605
12/13/18 14:18,556
12/13/18 14:18,546
12/13/18 14:18,521
12/13/18 14:18,482
12/13/18 14:18,455
12/13/18 14:18,481
12/13/18 14:18,485
12/13/18 14:18,478
12/13/18 14:18,475
12/13/18 14:18,474
12/13/18 14:18,468
12/13/18 14:18,470
12/13/18 14:18,473
12/13/18 14:18,470
12/13/18 14:18,463
12/13/18 14:18,475
12/13/18 14:18,475
12/13/18 14:18,490
12/13/18 14:18,513
12/13/18 14:18,520
12/13/18 14:18,518
12/13/18 14:18,520
12/13/18 14:18,518
12/13/18 14:18,516
12/13/18 14:18,514
12/13/18 14:18,511
12/13/18 14:18,511
12/13/18 14:18,511
12/13/18 14:18,511
12/13/18 14:18,502
12/13/18 14:18,477
12/13/18 14:18,502
12/13/18 14:18,514
12/13/18 14:18,519
12/13/18 14:18,519
12/13/18 14:18,519
12/13/18 14:18,519
12/13/18 14:18,516
12/13/18 14:18,490
12/13/18 14:18,511
12/13/18 14:18,521
12/13/18 14:18,520
12/13/18 14:18,514
12/13/18 14:18,509
12/13/18 14:18,505
12/13/18 14:18,500
12/13/18 14:18,500
12/13/18 14:18,500
12/13/18 14:18,496
12/13/18 14:18,486
12/13/18 14:18,493
12/13/18 14:18,560
12/13/18 14:18,573
12/13/18 14:18,534
12/13/18 14:18,537
12/13/18 14:18,515
12/13/18 14:18,498
12/13/18 14:18,482
12/13/18 14:18,466
12/13/18 14:18,457
12/13/18 14:18,463
12/13/18 14:18,443
12/13/18 14:18,472
12/13/18 14:18,485
12/13/18 14:18,486
12/13/18 14:18,486
12/13/18 14:18,489
12/13/18 14:18,486
12/13/18 14:18,492
12/13/18 14:18,495
12/13/18 14:18,499
12/13/18 14:18,502
12/13/18 14:18,506
12/13/18 14:18,507
12/13/18 14:18,508
12/13/18 14:18,508
12/13/18 14:18,486
12/13/18 14:18,499
12/13/18 14:18,514
12/13/18 14:18,520
12/13/18 14:18,521
12/13/18 14:18,506
12/13/18 14:18,508
12/13/18 14:18,522
12/13/18 14:18,522
12/13/18 14:18,518
12/13/18 14:18,499
12/13/18 14:18,500
12/13/18 14:18,513
12/13/18 14:18,514
12/13/18 14:18,493
12/13/18 14:18,522
12/13/18 14:18,526
12/13/18 14:18,522
12/13/18 14:18,508
12/13/18 14:18,494
12/13/18 14:18,501
12/13/18 14:18,506
12/13/18 14:18,504
12/13/18 14:18,508
12/13/18 14:18,504
12/13/18 14:18,504
12/13/18 14:18,503
12/13/18 14:18,488
12/13/18 14:18,585
12/13/18 14:18,571
12/13/18 14:18,535
12/13/18 14:18,529
12/13/18 14:18,499
12/13/18 14:18,479
12/13/18 14:18,479
12/13/18 14:18,482
12/13/18 14:18,475
12/13/18 14:18,468
12/13/18 14:18,467
12/13/18 14:18,466
12/13/18 14:18,449
12/13/18 14:18,474
12/13/18 14:18,487
12/13/18 14:18,487
12/13/18 14:18,483
12/13/18 14:18,481
12/13/18 14:18,489
12/13/18 14:18,492
12/13/18 14:18,490
12/13/18 14:18,516
12/13/18 14:18,526
12/13/18 14:18,523
12/13/18 14:18,522
12/13/18 14:18,518
12/13/18 14:18,516
12/13/18 14:18,516
12/13/18 14:18,512
12/13/18 14:18,507
12/13/18 14:18,477
12/13/18 14:27,503
12/13/18 14:27,506
12/13/18 14:27,517
12/13/18 14:27,515
12/13/18 14:27,511
12/13/18 14:27,507
12/13/18 14:27,507
12/13/18 14:27,500
12/13/18 14:27,499
12/13/18 14:27,497
12/13/18 14:27,564
12/13/18 14:27,605
12/13/18 14:27,536
12/13/18 14:27,517
12/13/18 14:27,479
12/13/18 14:27,480
12/13/18 14:27,484
12/13/18 14:27,484
12/13/18 14:27,480
12/13/18 14:27,475
12/13/18 14:27,471
12/13/18 14:27,469
12/13/18 14:27,470
12/13/18 14:27,472
12/13/18 14:27,476
12/13/18 14:27,481
12/13/18 14:27,484
12/13/18 14:27,487
12/13/18 14:27,495
12/13/18 14:27,495
12/13/18 14:27,461
12/13/18 14:27,497
12/13/18 14:27,514
12/13/18 14:27,522
12/13/18 14:27,524
12/13/18 14:27,521
12/13/18 14:27,523
12/13/18 14:27,518
12/13/18 14:27,520
12/13/18 14:27,516
12/13/18 14:27,514
12/13/18 14:27,512
12/13/18 14:27,506
12/13/18 14:27,508
12/13/18 14:27,507
12/13/18 14:27,499
12/13/18 14:27,500
12/13/18 14:27,518
12/13/18 14:27,512
12/13/18 14:27,506
12/13/18 14:27,514
12/13/18 14:27,513
12/13/18 14:27,511
12/13/18 14:27,513
12/13/18 14:27,504
12/13/18 14:27,488
12/13/18 14:27,514
12/13/18 14:27,518
12/13/18 14:27,514
12/13/18 14:27,509
12/13/18 14:27,507
12/13/18 14:27,504
12/13/18 14:27,480
12/13/18 14:27,592
12/13/18 14:27,551
12/13/18 14:27,522
12/13/18 14:27,528
12/13/18 14:27,511
12/13/18 14:27,497
12/13/18 14:27,485
12/13/18 14:27,475
12/13/18 14:27,456
12/13/18 14:27,475
12/13/18 14:27,476
12/13/18 14:27,473
12/13/18 14:27,471
12/13/18 14:27,460
12/13/18 14:27,460
12/13/18 14:27,474
12/13/18 14:27,483
12/13/18 14:27,491
12/13/18 14:27,474
12/13/18 14:27,506
12/13/18 14:27,518
12/13/18 14:27,518
12/13/18 14:27,518
12/13/18 14:27,517
12/13/18 14:27,502
12/13/18 14:27,496
12/13/18 14:27,507
12/13/18 14:27,513
12/13/18 14:27,517
12/13/18 14:27,518
12/13/18 14:27,517
12/13/18 14:27,512
12/13/18 14:27,510
12/13/18 14:27,490
12/13/18 14:27,517
12/13/18 14:27,523
12/13/18 14:27,517
12/13/18 14:27,519
12/13/18 14:27,517
12/13/18 14:27,515
12/13/18 14:27,513
12/13/18 14:27,508
12/13/18 14:27,506
12/13/18 14:27,503
12/13/18 14:27,483
12/13/18 14:27,497
12/13/18 14:27,493
12/13/18 14:27,500
12/13/18 14:27,505
12/13/18 14:27,508
12/13/18 14:27,511
12/13/18 14:27,506
12/13/18 14:27,504
12/13/18 14:27,519
12/13/18 14:27,637
12/13/18 14:27,558
12/13/18 14:27,528
12/13/18 14:27,513
12/13/18 14:27,468
12/13/18 14:27,481
12/13/18 14:27,487
12/13/18 14:27,482
12/13/18 14:27,471
12/13/18 14:27,454
12/13/18 14:27,460
12/13/18 14:27,465
12/13/18 14:27,469
12/13/18 14:27,475
12/13/18 14:27,479
12/13/18 14:27,485
12/13/18 14:27,491
12/13/18 14:27,495
12/13/18 14:27,500
12/13/18 14:27,501
12/13/18 14:27,504
12/13/18 14:27,508
12/13/18 14:27,508
12/13/18 14:27,509
12/13/18 14:27,511
12/13/18 14:27,494
12/13/18 14:27,498
12/13/18 14:27,510
12/13/18 14:27,523
12/13/18 14:27,524
12/13/18 14:27,523
12/13/18 14:27,520
12/13/18 14:27,515
12/13/18 14:27,516
12/13/18 14:27,514
12/13/18 14:27,512
12/13/18 14:27,489
12/13/18 14:27,506
12/13/18 14:27,523
12/13/18 14:27,523
12/13/18 14:27,521
12/13/18 14:27,517
12/13/18 14:27,509
12/13/18 14:27,506
12/13/18 14:27,502
12/13/18 14:27,500
12/13/18 14:27,498
12/13/18 14:27,497
12/13/18 14:27,499
12/13/18 14:27,499
12/13/18 14:27,498
12/13/18 14:27,502
12/13/18 14:27,492
12/13/18 14:27,543
12/13/18 14:27,610
12/13/18 14:27,541
12/13/18 14:27,520
12/13/18 14:27,502
12/13/18 14:27,492
12/13/18 14:27,484
12/13/18 14:27,481
12/13/18 14:27,476
12/13/18 14:27,472
12/13/18 14:27,469
12/13/18 14:27,465
12/13/18 14:27,468
12/13/18 14:27,452
12/13/18 14:27,468
12/13/18 14:27,484
12/13/18 14:27,481
12/13/18 14:27,493
12/13/18 14:27,500
12/13/18 14:27,479
12/13/18 14:27,508
12/13/18 14:27,518
12/13/18 14:27,504
12/13/18 14:27,508
12/13/18 14:27,516
12/13/18 14:27,521
12/13/18 14:27,519
12/13/18 14:27,520
12/13/18 14:27,517
12/13/18 14:27,516
12/13/18 14:27,488
12/13/18 14:27,509
12/13/18 14:27,504
12/13/18 14:27,508
12/13/18 14:27,513
12/13/18 14:27,517
12/13/18 14:27,515
12/13/18 14:27,515
12/13/18 14:27,515
12/13/18 14:27,513
12/13/18 14:27,514
12/13/18 14:27,509
12/13/18 14:27,510
12/13/18 14:27,507
12/13/18 14:27,492
12/13/18 14:27,495
12/13/18 14:27,509
12/13/18 14:27,513
12/13/18 14:27,509
12/13/18 14:27,503
12/13/18 14:27,505
12/13/18 14:27,500
12/13/18 14:27,475
12/13/18 14:27,460
12/13/18 14:27,594
12/13/18 14:27,585
12/13/18 14:27,538
12/13/18 14:27,518
12/13/18 14:27,503
12/13/18 14:27,467
12/13/18 14:27,478
12/13/18 14:27,479
12/13/18 14:27,478
12/13/18 14:27,475
12/13/18 14:27,472
12/13/18 14:27,473
12/13/18 14:27,458
12/13/18 14:27,445
12/13/18 14:27,476
12/13/18 14:27,493
12/13/18 14:27,500
12/13/18 14:27,503
12/13/18 14:27,505
12/13/18 14:27,506
12/13/18 14:27,507
12/13/18 14:27,507
12/13/18 14:27,508
12/13/18 14:27,509
12/13/18 14:27,509
12/13/18 14:27,510
12/13/18 14:27,511
12/13/18 14:27,501
12/13/18 14:27,501
12/13/18 14:27,518
12/13/18 14:27,515
12/13/18 14:27,503
12/13/18 14:27,507
12/13/18 14:27,512
12/13/18 14:27,512
12/13/18 14:27,514
12/13/18 14:27,515
12/13/18 14:27,514
12/13/18 14:27,513
12/13/18 14:27,509
12/13/18 14:27,488
12/13/18 14:27,517
12/13/18 14:27,521
12/13/18 14:27,518
12/13/18 14:27,513
12/13/18 14:27,508
12/13/18 14:27,507
12/13/18 14:27,500
12/13/18 14:27,502
12/13/18 14:27,501
12/13/18 14:27,501
12/13/18 14:27,500
12/13/18 14:27,490
12/13/18 14:27,577
12/13/18 14:27,608
12/13/18 14:27,506
12/13/18 14:27,495
12/13/18 14:27,502
12/13/18 14:27,499
12/13/18 14:27,487
12/13/18 14:27,484
12/13/18 14:27,483
12/13/18 14:27,475
12/13/18 14:27,473
12/13/18 14:27,470
12/13/18 14:27,470
12/13/18 14:27,474
12/13/18 14:27,477
12/13/18 14:27,483
12/13/18 14:27,462
12/13/18 14:27,494
12/13/18 14:27,504
12/13/18 14:27,507
12/13/18 14:27,511
12/13/18 14:27,503
12/13/18 14:27,495
12/13/18 14:27,505
12/13/18 14:27,509
12/13/18 14:27,514
12/13/18 14:27,515
12/13/18 14:27,517
12/13/18 14:27,489
12/13/18 14:27,502
12/13/18 14:27,518
12/13/18 14:27,518
12/13/18 14:27,523
12/13/18 14:27,519
12/13/18 14:27,516
12/13/18 14:27,517
12/13/18 14:27,514
12/13/18 14:27,515
12/13/18 14:27,489
12/13/18 14:27,516
12/13/18 14:27,525
12/13/18 14:27,522
12/13/18 14:27,514
12/13/18 14:27,511
12/13/18 14:27,507
12/13/18 14:27,503
12/13/18 14:27,500
12/13/18 14:27,468
12/13/18 14:27,480
12/13/18 14:27,505
12/13/18 14:27,512
12/13/18 14:27,510
12/13/18 14:27,510
12/13/18 14:27,508
12/13/18 14:27,478
12/13/18 14:27,607
12/13/18 14:27,562
12/13/18 14:27,529
12/13/18 14:27,515
12/13/18 14:27,496
12/13/18 14:27,456
12/13/18 14:27,459
12/13/18 14:27,474
12/13/18 14:27,477
12/13/18 14:27,476
12/13/18 14:27,475
12/13/18 14:27,475
12/13/18 14:27,477
12/13/18 14:27,477
12/13/18 14:27,479
12/13/18 14:27,484
12/13/18 14:27,487
12/13/18 14:27,493
12/13/18 14:27,495
12/13/18 14:27,497
12/13/18 14:27,502
12/13/18 14:27,506
12/13/18 14:27,507
12/13/18 14:27,510
12/13/18 14:27,489
12/13/18 14:27,510
12/13/18 14:27,520
12/13/18 14:27,525
12/13/18 14:27,521
12/13/18 14:27,518
12/13/18 14:27,514
12/13/18 14:27,507
12/13/18 14:27,506
12/13/18 14:27,506
12/13/18 14:27,509
12/13/18 14:27,508
12/13/18 14:27,506
12/13/18 14:27,499
12/13/18 14:27,484
12/13/18 14:27,509
12/13/18 14:27,520
12/13/18 14:27,521
12/13/18 14:27,521
12/13/18 14:27,492
12/13/18 14:27,507
12/13/18 14:27,519
12/13/18 14:27,518
12/13/18 14:27,516
12/13/18 14:27,508
12/13/18 14:27,504
12/13/18 14:27,498
12/13/18 14:27,478
12/13/18 14:27,479
12/13/18 14:27,528
12/13/18 14:27,629
12/13/18 14:27,564
12/13/18 14:27,539
12/13/18 14:27,523
12/13/18 14:27,499
12/13/18 14:27,482
12/13/18 14:27,475
12/13/18 14:27,471
12/13/18 14:27,472
12/13/18 14:27,466
12/13/18 14:27,466
12/13/18 14:27,467
12/13/18 14:27,465
12/13/18 14:27,470
12/13/18 14:27,449
12/13/18 14:27,483
12/13/18 14:27,497
12/13/18 14:27,492
12/13/18 14:27,489
12/13/18 14:27,499
12/13/18 14:27,506
12/13/18 14:27,513
12/13/18 14:27,514
12/13/18 14:27,517
12/13/18 14:27,516
12/13/18 14:27,516
12/13/18 14:27,514
12/13/18 14:27,514
12/13/18 14:27,492
12/13/18 14:27,513
12/13/18 14:27,520
12/13/18 14:27,516
12/13/18 14:27,500
12/13/18 14:27,508
12/13/18 14:27,511
12/13/18 14:27,509
12/13/18 14:27,496
12/13/18 14:27,520
12/13/18 14:27,528
12/13/18 14:27,524
12/13/18 14:27,523
12/13/18 14:27,516
12/13/18 14:27,508
12/13/18 14:27,493
12/13/18 14:27,494
12/13/18 14:27,503
12/13/18 14:27,504
12/13/18 14:27,503
12/13/18 14:27,503
12/13/18 14:27,503
12/13/18 14:27,503
12/13/18 14:27,504
12/13/18 14:27,500
12/13/18 14:27,500
12/13/18 14:27,616
12/13/18 14:27,569
12/13/18 14:27,542
12/13/18 14:27,517
12/13/18 14:27,468
12/13/18 14:27,482
12/13/18 14:27,489
12/13/18 14:27,485
12/13/18 14:27,482
12/13/18 14:27,476
12/13/18 14:27,469
12/13/18 14:27,470
12/13/18 14:27,471
12/13/18 14:27,472
12/13/18 14:27,473
12/13/18 14:27,447
12/13/18 14:27,478
12/13/18 14:27,496
12/13/18 14:27,505
12/13/18 14:27,510
12/13/18 14:27,510
12/13/18 14:27,511
12/13/18 14:27,511
12/13/18 14:27,511
12/13/18 14:27,493
12/13/18 14:27,514
12/13/18 14:27,510
12/13/18 14:27,514
12/13/18 14:27,519
12/13/18 14:27,520
12/13/18 14:27,517
12/13/18 14:27,514
12/13/18 14:27,513
12/13/18 14:27,511
12/13/18 14:27,508
12/13/18 14:27,483
12/13/18 14:27,514
12/13/18 14:27,522
12/13/18 14:27,522
12/13/18 14:27,519
12/13/18 14:27,512
12/13/18 14:27,510
12/13/18 14:27,507
12/13/18 14:27,505
12/13/18 14:27,502
12/13/18 14:27,485
12/13/18 14:27,489
12/13/18 14:27,496
12/13/18 14:27,500
12/13/18 14:27,504
12/13/18 14:27,506
12/13/18 14:27,506
12/13/18 14:27,503
12/13/18 14:27,478
12/13/18 14:27,612
12/13/18 14:27,578
12/13/18 14:27,548
12/13/18 14:27,521
12/13/18 14:27,506
12/13/18 14:27,480
12/13/18 14:27,444
12/13/18 14:27,462
12/13/18 14:27,477
12/13/18 14:27,478
12/13/18 14:27,477
12/13/18 14:27,471
12/13/18 14:27,435
12/13/18 14:27,463
12/13/18 14:27,486
12/13/18 14:27,494
12/13/18 14:27,499
12/13/18 14:27,502
12/13/18 14:27,504
12/13/18 14:27,499
12/13/18 14:27,492
12/13/18 14:27,515
12/13/18 14:27,506
12/13/18 14:27,507
12/13/18 14:27,513
12/13/18 14:27,514
12/13/18 14:27,515
12/13/18 14:27,516
12/13/18 14:27,515
12/13/18 14:27,517
12/13/18 14:27,512
12/13/18 14:27,509
12/13/18 14:27,509
12/13/18 14:27,507
12/13/18 14:27,507
12/13/18 14:27,480
12/13/18 14:27,494
12/13/18 14:27,513
12/13/18 14:27,519
12/13/18 14:27,522
12/13/18 14:27,519
12/13/18 14:27,517
12/13/18 14:27,515
12/13/18 14:27,510
12/13/18 14:27,511
12/13/18 14:27,505
12/13/18 14:27,479
12/13/18 14:27,506
12/13/18 14:27,512
12/13/18 14:27,511
12/13/18 14:27,499
12/13/18 14:27,493
12/13/18 14:27,537
12/13/18 14:27,618
12/13/18 14:27,553
12/13/18 14:27,540
12/13/18 14:27,523
12/13/18 14:27,503
12/13/18 14:27,491
12/13/18 14:27,481
12/13/18 14:27,473
12/13/18 14:27,466
12/13/18 14:27,463
12/13/18 14:27,459
12/13/18 14:27,461
12/13/18 14:27,462
12/13/18 14:27,464
12/13/18 14:27,459
12/13/18 14:27,479
12/13/18 14:27,483
12/13/18 14:27,495
12/13/18 14:27,504
12/13/18 14:27,507
12/13/18 14:27,510
12/13/18 14:27,515
12/13/18 14:27,515
12/13/18 14:27,515
12/13/18 14:27,516
12/13/18 14:27,514
12/13/18 14:27,517
12/13/18 14:27,514
12/13/18 14:27,513
12/13/18 14:27,501
12/13/18 14:27,498
12/13/18 14:27,518
12/13/18 14:27,519
12/13/18 14:27,513
12/13/18 14:27,501
12/13/18 14:27,505
12/13/18 14:27,513
12/13/18 14:27,511
12/13/18 14:27,490
12/13/18 14:27,501
12/13/18 14:27,516
12/13/18 14:27,520
12/13/18 14:27,519
12/13/18 14:27,519
12/13/18 14:27,516
12/13/18 14:27,505
12/13/18 14:27,488
12/13/18 14:27,501
12/13/18 14:27,500
12/13/18 14:27,507
12/13/18 14:27,511
12/13/18 14:27,511
12/13/18 14:27,577
12/13/18 14:36,512
12/13/18 14:36,512
12/13/18 14:36,510
12/13/18 14:36,507
12/13/18 14:36,507
12/13/18 14:36,505
12/13/18 14:36,501
12/13/18 14:36,503
12/13/18 14:36,487
12/13/18 14:36,494
12/13/18 14:36,477
12/13/18 14:36,594
12/13/18 14:36,557
12/13/18 14:36,526
12/13/18 14:36,517
12/13/18 14:36,509
12/13/18 14:36,493
12/13/18 14:36,461
12/13/18 14:36,485
12/13/18 14:36,487
12/13/18 14:36,481
12/13/18 14:36,476
12/13/18 14:36,475
12/13/18 14:36,458
12/13/18 14:36,461
12/13/18 14:36,446
12/13/18 14:36,483
12/13/18 14:36,504
12/13/18 14:36,506
12/13/18 14:36,505
12/13/18 14:36,507
12/13/18 14:36,508
12/13/18 14:36,507
12/13/18 14:36,507
12/13/18 14:36,482
12/13/18 14:36,486
12/13/18 14:36,511
12/13/18 14:36,520
12/13/18 14:36,524
12/13/18 14:36,524
12/13/18 14:36,522
12/13/18 14:36,519
12/13/18 14:36,512
12/13/18 14:36,509
12/13/18 14:36,508
12/13/18 14:36,505
12/13/18 14:36,479
12/13/18 14:36,496
12/13/18 14:36,508
12/13/18 14:36,516
12/13/18 14:36,522
12/13/18 14:36,519
12/13/18 14:36,502
12/13/18 14:36,501
12/13/18 14:36,520
12/13/18 14:36,521
12/13/18 14:36,516
12/13/18 14:36,513
12/13/18 14:36,506
12/13/18 14:36,492
12/13/18 14:36,483
12/13/18 14:36,471
12/13/18 14:36,494
12/13/18 14:36,504
12/13/18 14:36,587
12/13/18 14:36,591
12/13/18 14:36,546
12/13/18 14:36,522
12/13/18 14:36,464
12/13/18 14:36,475
12/13/18 14:36,488
12/13/18 14:36,486
12/13/18 14:36,466
12/13/18 14:36,487
12/13/18 14:36,489
12/13/18 14:36,487
12/13/18 14:36,480
12/13/18 14:36,481
12/13/18 14:36,478
12/13/18 14:36,482
12/13/18 14:36,483
12/13/18 14:36,490
12/13/18 14:36,489
12/13/18 14:36,494
12/13/18 14:36,500
12/13/18 14:36,500
12/13/18 14:36,491
12/13/18 14:36,472
12/13/18 14:36,495
12/13/18 14:36,521
12/13/18 14:36,526
12/13/18 14:36,526
12/13/18 14:36,525
12/13/18 14:36,519
12/13/18 14:36,516
12/13/18 14:36,513
12/13/18 14:36,509
12/13/18 14:36,509
12/13/18 14:36,485
12/13/18 14:36,485
12/13/18 14:36,510
12/13/18 14:36,522
12/13/18 14:36,525
12/13/18 14:36,522
12/13/18 14:36,519
12/13/18 14:36,515
12/13/18 14:36,510
12/13/18 14:36,479
12/13/18 14:36,507
12/13/18 14:36,517
12/13/18 14:36,511
12/13/18 14:36,492
12/13/18 14:36,494
12/13/18 14:36,474
12/13/18 14:36,504
12/13/18 14:36,516
12/13/18 14:36,526
12/13/18 14:36,556
12/13/18 14:36,577
12/13/18 14:36,530
12/13/18 14:36,524
12/13/18 14:36,508
12/13/18 14:36,493
12/13/18 14:36,481
12/13/18 14:36,476
12/13/18 14:36,475
12/13/18 14:36,451
12/13/18 14:36,476
12/13/18 14:36,485
12/13/18 14:36,482
12/13/18 14:36,483
12/13/18 14:36,472
12/13/18 14:36,466
12/13/18 14:36,477
12/13/18 14:36,492
12/13/18 14:36,497
12/13/18 14:36,501
12/13/18 14:36,507
12/13/18 14:36,508
12/13/18 14:36,500
12/13/18 14:36,501
12/13/18 14:36,521
12/13/18 14:36,523
12/13/18 14:36,504
12/13/18 14:36,506
12/13/18 14:36,513
12/13/18 14:36,491
12/13/18 14:36,515
12/13/18 14:36,526
12/13/18 14:36,525
12/13/18 14:36,520
12/13/18 14:36,517
12/13/18 14:36,514
12/13/18 14:36,509
12/13/18 14:36,510
12/13/18 14:36,488
12/13/18 14:36,499
12/13/18 14:36,500
12/13/18 14:36,508
12/13/18 14:36,513
12/13/18 14:36,513
12/13/18 14:36,512
12/13/18 14:36,510
12/13/18 14:36,507
12/13/18 14:36,504
12/13/18 14:36,498
12/13/18 14:36,482
12/13/18 14:36,508
12/13/18 14:36,512
12/13/18 14:36,513
12/13/18 14:36,542
12/13/18 14:36,611
12/13/18 14:36,544
12/13/18 14:36,526
12/13/18 14:36,507
12/13/18 14:36,489
12/13/18 14:36,478
12/13/18 14:36,465
12/13/18 14:36,448
12/13/18 14:36,466
12/13/18 14:36,472
12/13/18 14:36,478
12/13/18 14:36,479
12/13/18 14:36,454
12/13/18 14:36,460
12/13/18 14:36,477
12/13/18 14:36,495
12/13/18 14:36,502
12/13/18 14:36,506
12/13/18 14:36,510
12/13/18 14:36,509
12/13/18 14:36,509
12/13/18 14:36,508
12/13/18 14:36,499
12/13/18 14:36,477
12/13/18 14:36,507
12/13/18 14:36,522
12/13/18 14:36,526
12/13/18 14:36,525
12/13/18 14:36,523
12/13/18 14:36,518
12/13/18 14:36,513
12/13/18 14:36,511
12/13/18 14:36,509
12/13/18 14:36,508
12/13/18 14:36,491
12/13/18 14:36,497
12/13/18 14:36,518
12/13/18 14:36,507
12/13/18 14:36,505
12/13/18 14:36,513
12/13/18 14:36,514
12/13/18 14:36,514
12/13/18 14:36,513
12/13/18 14:36,510
12/13/18 14:36,507
12/13/18 14:36,505
12/13/18 14:36,503
12/13/18 14:36,494
12/13/18 14:36,490
12/13/18 14:36,511
12/13/18 14:36,513
12/13/18 14:36,511
12/13/18 14:36,520
12/13/18 14:36,557
12/13/18 14:36,591
12/13/18 14:36,542
12/13/18 14:36,522
12/13/18 14:36,501
12/13/18 14:36,485
12/13/18 14:36,475
12/13/18 14:36,473
12/13/18 14:36,473
12/13/18 14:36,444
12/13/18 14:36,457
12/13/18 14:36,462
12/13/18 14:36,476
12/13/18 14:36,481
12/13/18 14:36,484
12/13/18 14:36,491
12/13/18 14:36,493
12/13/18 14:36,494
12/13/18 14:36,498
12/13/18 14:36,499
12/13/18 14:36,503
12/13/18 14:36,494
12/13/18 14:36,497
12/13/18 14:36,516
12/13/18 14:36,521
12/13/18 14:36,519
12/13/18 14:36,518
12/13/18 14:36,514
12/13/18 14:36,511
12/13/18 14:36,469
12/13/18 14:36,504
12/13/18 14:36,518
12/13/18 14:36,520
12/13/18 14:36,517
12/13/18 14:36,517
12/13/18 14:36,517
12/13/18 14:36,513
12/13/18 14:36,512
12/13/18 14:36,510
12/13/18 14:36,508
12/13/18 14:36,485
12/13/18 14:36,508
12/13/18 14:36,503
12/13/18 14:36,506
12/13/18 14:36,510
12/13/18 14:36,513
12/13/18 14:36,513
12/13/18 14:36,510
12/13/18 14:36,503
12/13/18 14:36,480
12/13/18 14:36,501
12/13/18 14:36,514
12/13/18 14:36,513
12/13/18 14:36,502
12/13/18 14:36,582
12/13/18 14:36,597
12/13/18 14:36,534
12/13/18 14:36,520
12/13/18 14:36,489
12/13/18 14:36,453
12/13/18 14:36,466
12/13/18 14:36,484
12/13/18 14:36,486
12/13/18 14:36,484
12/13/18 14:36,480
12/13/18 14:36,476
12/13/18 14:36,476
12/13/18 14:36,474
12/13/18 14:36,452
12/13/18 14:36,486
12/13/18 14:36,497
12/13/18 14:36,499
12/13/18 14:36,502
12/13/18 14:36,500
12/13/18 14:36,502
12/13/18 14:36,504
12/13/18 14:36,485
12/13/18 14:36,480
12/13/18 14:36,511
12/13/18 14:36,519
12/13/18 14:36,524
12/13/18 14:36,524
12/13/18 14:36,522
12/13/18 14:36,519
12/13/18 14:36,514
12/13/18 14:36,515
12/13/18 14:36,507
12/13/18 14:36,505
12/13/18 14:36,506
12/13/18 14:36,505
12/13/18 14:36,508
12/13/18 14:36,495
12/13/18 14:36,485
12/13/18 14:36,506
12/13/18 14:36,517
12/13/18 14:36,521
12/13/18 14:36,521
12/13/18 14:36,516
12/13/18 14:36,510
12/13/18 14:36,507
12/13/18 14:36,480
12/13/18 14:36,490
12/13/18 14:36,505
12/13/18 14:36,514
12/13/18 14:36,514
12/13/18 14:36,513
12/13/18 14:36,507
12/13/18 14:36,548
12/13/18 14:36,577
12/13/18 14:36,541
12/13/18 14:36,535
12/13/18 14:36,517
12/13/18 14:36,488
12/13/18 14:36,488
12/13/18 14:36,482
12/13/18 14:36,478
12/13/18 14:36,473
12/13/18 14:36,475
12/13/18 14:36,472
12/13/18 14:36,473
12/13/18 14:36,475
12/13/18 14:36,471
12/13/18 14:36,460
12/13/18 14:36,488
12/13/18 14:36,496
12/13/18 14:36,482
12/13/18 14:36,489
12/13/18 14:36,501
12/13/18 14:36,502
12/13/18 14:36,482
12/13/18 14:36,517
12/13/18 14:36,526
12/13/18 14:36,524
12/13/18 14:36,523
12/13/18 14:36,519
12/13/18 14:36,517
12/13/18 14:36,514
12/13/18 14:36,512
12/13/18 14:36,496
12/13/18 14:36,471
12/13/18 14:36,507
12/13/18 14:36,517
12/13/18 14:36,520
12/13/18 14:36,520
12/13/18 14:36,518
12/13/18 14:36,516
12/13/18 14:36,513
12/13/18 14:36,512
12/13/18 14:36,510
12/13/18 14:36,484
12/13/18 14:36,507
12/13/18 14:36,516
12/13/18 14:36,515
12/13/18 14:36,493
12/13/18 14:36,495
12/13/18 14:36,502
12/13/18 14:36,504
12/13/18 14:36,504
12/13/18 14:36,503
12/13/18 14:36,504
12/13/18 14:36,505
12/13/18 14:36,476
12/13/18 14:36,555
12/13/18 14:36,573
12/13/18 14:36,540
12/13/18 14:36,508
12/13/18 14:36,520
12/13/18 14:36,514
12/13/18 14:36,495
12/13/18 14:36,486
12/13/18 14:36,467
12/13/18 14:36,460
12/13/18 14:36,467
12/13/18 14:36,470
12/13/18 14:36,475
12/13/18 14:36,477
12/13/18 14:36,481
12/13/18 14:36,484
12/13/18 14:36,489
12/13/18 14:36,495
12/13/18 14:36,493
12/13/18 14:36,479
12/13/18 14:36,511
12/13/18 14:36,514
12/13/18 14:36,499
12/13/18 14:36,504
12/13/18 14:36,511
12/13/18 14:36,498
12/13/18 14:36,508
12/13/18 14:36,529
12/13/18 14:36,529
12/13/18 14:36,528
12/13/18 14:36,522
12/13/18 14:36,514
12/13/18 14:36,510
12/13/18 14:36,507
12/13/18 14:36,505
12/13/18 14:36,506
12/13/18 14:36,505
12/13/18 14:36,505
12/13/18 14:36,507
12/13/18 14:36,490
12/13/18 14:36,500
12/13/18 14:36,518
12/13/18 14:36,519
12/13/18 14:36,513
12/13/18 14:36,508
12/13/18 14:36,506
12/13/18 14:36,487
12/13/18 14:36,489
12/13/18 14:36,493
12/13/18 14:36,477
12/13/18 14:36,509
12/13/18 14:36,517
12/13/18 14:36,516
12/13/18 14:36,513
12/13/18 14:36,580
12/13/18 14:36,615
12/13/18 14:36,531
12/13/18 14:36,499
12/13/18 14:36,513
12/13/18 14:36,501
12/13/18 14:36,481
12/13/18 14:36,463
12/13/18 14:36,450
12/13/18 14:36,465
12/13/18 14:36,482
12/13/18 14:36,484
12/13/18 14:36,484
12/13/18 14:36,483
12/13/18 14:36,482
12/13/18 14:36,485
12/13/18 14:36,485
12/13/18 14:36,488
12/13/18 14:36,492
12/13/18 14:36,496
12/13/18 14:36,500
12/13/18 14:36,502
12/13/18 14:36,477
12/13/18 14:36,509
12/13/18 14:36,519
12/13/18 14:36,505
12/13/18 14:36,508
12/13/18 14:36,514
12/13/18 14:36,520
12/13/18 14:36,518
12/13/18 14:36,509
12/13/18 14:36,497
12/13/18 14:36,520
12/13/18 14:36,523
12/13/18 14:36,521
12/13/18 14:36,518
12/13/18 14:36,513
12/13/18 14:36,511
12/13/18 14:36,510
12/13/18 14:36,509
12/13/18 14:36,508
12/13/18 14:36,490
12/13/18 14:36,478
12/13/18 14:36,498
12/13/18 14:36,519
12/13/18 14:36,522
12/13/18 14:36,516
12/13/18 14:36,512
12/13/18 14:36,511
12/13/18 14:36,505
12/13/18 14:36,503
12/13/18 14:36,501
12/13/18 14:36,502
12/13/18 14:36,503
12/13/18 14:36,477
12/13/18 14:36,469
12/13/18 14:36,585
12/13/18 14:36,592
12/13/18 14:36,542
12/13/18 14:36,527
12/13/18 14:36,505
12/13/18 14:36,489
12/13/18 14:36,482
12/13/18 14:36,458
12/13/18 14:36,472
12/13/18 14:36,485
12/13/18 14:36,482
12/13/18 14:36,480
12/13/18 14:36,462
12/13/18 14:36,463
12/13/18 14:36,473
12/13/18 14:36,483
12/13/18 14:36,488
12/13/18 14:36,495
12/13/18 14:36,497
12/13/18 14:36,498
12/13/18 14:36,486
12/13/18 14:36,514
12/13/18 14:36,520
12/13/18 14:36,520
12/13/18 14:36,518
12/13/18 14:36,515
12/13/18 14:36,507
12/13/18 14:36,470
12/13/18 14:36,504
12/13/18 14:36,524
12/13/18 14:36,527
12/13/18 14:36,522
12/13/18 14:36,520
12/13/18 14:36,514
12/13/18 14:36,509
12/13/18 14:36,507
12/13/18 14:36,505
12/13/18 14:36,507
12/13/18 14:36,506
12/13/18 14:36,510
12/13/18 14:36,506
12/13/18 14:36,487
12/13/18 14:36,502
12/13/18 14:36,504
12/13/18 14:36,509
12/13/18 14:36,511
12/13/18 14:36,511
12/13/18 14:36,512
12/13/18 14:36,507
12/13/18 14:36,506
12/13/18 14:36,502
12/13/18 14:36,499
12/13/18 14:36,501
12/13/18 14:36,499
12/13/18 14:36,462
12/13/18 14:36,570
12/13/18 14:36,586
12/13/18 14:36,532
12/13/18 14:36,531
12/13/18 14:36,515
12/13/18 14:36,484
12/13/18 14:36,451
12/13/18 14:36,467
12/13/18 14:36,483
12/13/18 14:36,487
12/13/18 14:36,486
12/13/18 14:36,483
12/13/18 14:36,483
12/13/18 14:36,483
12/13/18 14:36,486
12/13/18 14:36,485
12/13/18 14:36,488
12/13/18 14:36,472
12/13/18 14:36,501
12/13/18 14:36,508
12/13/18 14:36,510
12/13/18 14:36,511
12/13/18 14:36,507
12/13/18 14:36,508
12/13/18 14:36,510
12/13/18 14:36,511
12/13/18 14:36,506
12/13/18 14:36,465
12/13/18 14:36,498
12/13/18 14:36,518
12/13/18 14:36,523
12/13/18 14:36,519
12/13/18 14:36,517
12/13/18 14:36,514
12/13/18 14:36,511
12/13/18 14:36,508
12/13/18 14:36,508
12/13/18 14:36,507
12/13/18 14:36,508
12/13/18 14:36,509
12/13/18 14:36,508
12/13/18 14:36,498
12/13/18 14:36,492
12/13/18 14:36,501
12/13/18 14:36,506
12/13/18 14:36,480
12/13/18 14:36,508
12/13/18 14:36,520
12/13/18 14:36,516
12/13/18 14:45,512
12/13/18 14:45,513
12/13/18 14:45,518
12/13/18 14:45,518
12/13/18 14:45,517
12/13/18 14:45,513
12/13/18 14:45,511
12/13/18 14:45,508
12/13/18 14:45,485
12/13/18 14:45,514
12/13/18 14:45,521
12/13/18 14:45,520
12/13/18 14:45,516
12/13/18 14:45,511
12/13/18 14:45,506
12/13/18 14:45,507
12/13/18 14:45,502
12/13/18 14:45,487
12/13/18 14:45,465
12/13/18 14:45,501
12/13/18 14:45,512
12/13/18 14:45,515
12/13/18 14:45,513
12/13/18 14:45,509
12/13/18 14:45,507
12/13/18 14:45,506
12/13/18 14:45,501
12/13/18 14:45,543
12/13/18 14:45,624
12/13/18 14:45,535
12/13/18 14:45,497
12/13/18 14:45,508
12/13/18 14:45,501
12/13/18 14:45,494
12/13/18 14:45,488
12/13/18 14:45,481
12/13/18 14:45,474
12/13/18 14:45,470
12/13/18 14:45,459
12/13/18 14:45,430
12/13/18 14:45,471
12/13/18 14:45,487
12/13/18 14:45,492
12/13/18 14:45,496
12/13/18 14:45,497
12/13/18 14:45,499
12/13/18 14:45,500
12/13/18 14:45,501
12/13/18 14:45,503
12/13/18 14:45,474
12/13/18 14:45,492
12/13/18 14:45,512
12/13/18 14:45,520
12/13/18 14:45,521
12/13/18 14:45,500
12/13/18 14:45,525
12/13/18 14:45,530
12/13/18 14:45,512
12/13/18 14:45,507
12/13/18 14:45,512
12/13/18 14:45,514
12/13/18 14:45,512
12/13/18 14:45,512
12/13/18 14:45,509
12/13/18 14:45,508
12/13/18 14:45,509
12/13/18 14:45,508
12/13/18 14:45,508
12/13/18 14:45,483
12/13/18 14:45,511
12/13/18 14:45,505
12/13/18 14:45,505
12/13/18 14:45,508
12/13/18 14:45,510
12/13/18 14:45,507
12/13/18 14:45,488
12/13/18 14:45,514
12/13/18 14:45,518
12/13/18 14:45,514
12/13/18 14:45,510
12/13/18 14:45,509
12/13/18 14:45,503
12/13/18 14:45,486
12/13/18 14:45,578
12/13/18 14:45,550
12/13/18 14:45,539
12/13/18 14:45,524
12/13/18 14:45,505
12/13/18 14:45,492
12/13/18 14:45,483
12/13/18 14:45,478
12/13/18 14:45,471
12/13/18 14:45,451
12/13/18 14:45,441
12/13/18 14:45,467
12/13/18 14:45,482
12/13/18 14:45,484
12/13/18 14:45,487
12/13/18 14:45,490
12/13/18 14:45,492
12/13/18 14:45,463
12/13/18 14:45,479
12/13/18 14:45,501
12/13/18 14:45,511
12/13/18 14:45,517
12/13/18 14:45,519
12/13/18 14:45,518
12/13/18 14:45,519
12/13/18 14:45,513
12/13/18 14:45,511
12/13/18 14:45,512
12/13/18 14:45,491
12/13/18 14:45,503
12/13/18 14:45,511
12/13/18 14:45,519
12/13/18 14:45,519
12/13/18 14:45,516
12/13/18 14:45,515
12/13/18 14:45,512
12/13/18 14:45,510
12/13/18 14:45,511
12/13/18 14:45,507
12/13/18 14:45,510
12/13/18 14:45,496
12/13/18 14:45,500
12/13/18 14:45,520
12/13/18 14:45,518
12/13/18 14:45,515
12/13/18 14:45,509
12/13/18 14:45,487
12/13/18 14:45,472
12/13/18 14:45,490
12/13/18 14:45,513
12/13/18 14:45,515
12/13/18 14:45,518
12/13/18 14:45,511
12/13/18 14:45,508
12/13/18 14:45,481
12/13/18 14:45,536
12/13/18 14:45,588
12/13/18 14:45,549
12/13/18 14:45,531
12/13/18 14:45,515
12/13/18 14:45,499
12/13/18 14:45,485
12/13/18 14:45,476
12/13/18 14:45,473
12/13/18 14:45,472
12/13/18 14:45,470
12/13/18 14:45,470
12/13/18 14:45,472
12/13/18 14:45,474
12/13/18 14:45,477
12/13/18 14:45,481
12/13/18 14:45,483
12/13/18 14:45,489
12/13/18 14:45,491
12/13/18 14:45,456
12/13/18 14:45,492
12/13/18 14:45,513
12/13/18 14:45,520
12/13/18 14:45,520
12/13/18 14:45,520
12/13/18 14:45,491
12/13/18 14:45,502
12/13/18 14:45,509
12/13/18 14:45,522
12/13/18 14:45,525
12/13/18 14:45,527
12/13/18 14:45,522
12/13/18 14:45,516
12/13/18 14:45,513
12/13/18 14:45,512
12/13/18 14:45,509
12/13/18 14:45,506
12/13/18 14:45,504
12/13/18 14:45,481
12/13/18 14:45,495
12/13/18 14:45,507
12/13/18 14:45,518
12/13/18 14:45,522
12/13/18 14:45,517
12/13/18 14:45,515
12/13/18 14:45,510
12/13/18 14:45,509
12/13/18 14:45,479
12/13/18 14:45,495
12/13/18 14:45,515
12/13/18 14:45,514
12/13/18 14:45,510
12/13/18 14:45,492
12/13/18 14:45,489
12/13/18 14:45,497
12/13/18 14:45,499
12/13/18 14:45,545
12/13/18 14:45,626
12/13/18 14:45,529
12/13/18 14:45,537
12/13/18 14:45,521
12/13/18 14:45,503
12/13/18 14:45,491
12/13/18 14:45,484
12/13/18 14:45,480
12/13/18 14:45,473
12/13/18 14:45,467
12/13/18 14:45,468
12/13/18 14:45,468
12/13/18 14:45,471
12/13/18 14:45,476
12/13/18 14:45,476
12/13/18 14:45,456
12/13/18 14:45,487
12/13/18 14:45,503
12/13/18 14:45,486
12/13/18 14:45,493
12/13/18 14:45,507
12/13/18 14:45,511
12/13/18 14:45,511
12/13/18 14:45,511
12/13/18 14:45,515
12/13/18 14:45,496
12/13/18 14:45,507
12/13/18 14:45,525
12/13/18 14:45,507
12/13/18 14:45,511
12/13/18 14:45,516
12/13/18 14:45,517
12/13/18 14:45,516
12/13/18 14:45,514
12/13/18 14:45,511
12/13/18 14:45,511
12/13/18 14:45,509
12/13/18 14:45,510
12/13/18 14:45,508
12/13/18 14:45,508
12/13/18 14:45,487
12/13/18 14:45,514
12/13/18 14:45,501
12/13/18 14:45,504
12/13/18 14:45,510
12/13/18 14:45,510
12/13/18 14:45,510
12/13/18 14:45,490
12/13/18 14:45,500
12/13/18 14:45,516
12/13/18 14:45,517
12/13/18 14:45,515
12/13/18 14:45,510
12/13/18 14:45,506
12/13/18 14:45,504
12/13/18 14:45,475
12/13/18 14:45,572
12/13/18 14:45,553
12/13/18 14:45,522
12/13/18 14:45,486
12/13/18 14:45,497
12/13/18 14:45,499
12/13/18 14:45,491
12/13/18 14:45,487
12/13/18 14:45,483
12/13/18 14:45,477
12/13/18 14:45,474
12/13/18 14:45,473
12/13/18 14:45,436
12/13/18 14:45,469
12/13/18 14:45,485
12/13/18 14:45,494
12/13/18 14:45,500
12/13/18 14:45,501
12/13/18 14:45,501
12/13/18 14:45,502
12/13/18 14:45,504
12/13/18 14:45,506
12/13/18 14:45,504
12/13/18 14:45,506
12/13/18 14:45,503
12/13/18 14:45,491
12/13/18 14:45,518
12/13/18 14:45,522
12/13/18 14:45,522
12/13/18 14:45,503
12/13/18 14:45,502
12/13/18 14:45,507
12/13/18 14:45,509
12/13/18 14:45,510
12/13/18 14:45,509
12/13/18 14:45,509
12/13/18 14:45,497
12/13/18 14:45,500
12/13/18 14:45,515
12/13/18 14:45,503
12/13/18 14:45,510
12/13/18 14:45,515
12/13/18 14:45,516
12/13/18 14:45,517
12/13/18 14:45,508
12/13/18 14:45,495
12/13/18 14:45,518
12/13/18 14:45,517
12/13/18 14:45,516
12/13/18 14:45,494
12/13/18 14:45,487
12/13/18 14:45,496
12/13/18 14:45,500
12/13/18 14:45,501
12/13/18 14:45,506
12/13/18 14:45,507
12/13/18 14:45,478
12/13/18 14:45,594
12/13/18 14:45,571
12/13/18 14:45,530
12/13/18 14:45,509
12/13/18 14:45,453
12/13/18 14:45,472
12/13/18 14:45,480
12/13/18 14:45,457
12/13/18 14:45,478
12/13/18 14:45,487
12/13/18 14:45,489
12/13/18 14:45,489
12/13/18 14:45,491
12/13/18 14:45,491
12/13/18 14:45,491
12/13/18 14:45,490
12/13/18 14:45,492
12/13/18 14:45,495
12/13/18 14:45,497
12/13/18 14:45,497
12/13/18 14:45,501
12/13/18 14:45,499
12/13/18 14:45,487
12/13/18 14:45,513
12/13/18 14:45,517
12/13/18 14:45,520
12/13/18 14:45,518
12/13/18 14:45,513
12/13/18 14:45,506
12/13/18 14:45,478
12/13/18 14:45,508
12/13/18 14:45,519
12/13/18 14:45,521
12/13/18 14:45,518
12/13/18 14:45,509
12/13/18 14:45,493
12/13/18 14:45,499
12/13/18 14:45,508
12/13/18 14:45,515
12/13/18 14:45,517
12/13/18 14:45,518
12/13/18 14:45,514
12/13/18 14:45,493
12/13/18 14:45,515
12/13/18 14:45,520
12/13/18 14:45,517
12/13/18 14:45,512
12/13/18 14:45,505
12/13/18 14:45,485
12/13/18 14:45,489
12/13/18 14:45,497
12/13/18 14:45,499
12/13/18 14:45,481
12/13/18 14:45,509
12/13/18 14:45,517
12/13/18 14:45,515
12/13/18 14:45,512
12/13/18 14:45,509
12/13/18 14:45,503
12/13/18 14:45,482
12/13/18 14:45,462
12/13/18 14:45,477
12/13/18 14:45,467
12/13/18 14:45,514
12/13/18 14:45,496
12/13/18 14:45,503
12/13/18 14:45,513
12/13/18 14:45,517
12/13/18 14:45,540
12/13/18 14:45,526
12/13/18 14:45,512
12/13/18 14:45,520
12/13/18 14:45,521
12/13/18 14:45,517
12/13/18 14:45,517
12/13/18 14:45,513
12/13/18 14:45,482
12/13/18 14:45,507
12/13/18 14:45,515
12/13/18 14:45,512
12/13/18 14:45,509
12/13/18 14:45,507
12/13/18 14:45,502
12/13/18 14:45,491
12/13/18 14:45,475
12/13/18 14:45,488
12/13/18 14:45,496
12/13/18 14:45,472
12/13/18 14:45,503
12/13/18 14:45,514
12/13/18 14:45,516
12/13/18 14:45,513
12/13/18 14:45,539
12/13/18 14:45,626
12/13/18 14:45,522
12/13/18 14:45,477
12/13/18 14:45,485
12/13/18 14:45,501
12/13/18 14:45,499
12/13/18 14:45,492
12/13/18 14:45,485
12/13/18 14:45,481
12/13/18 14:45,478
12/13/18 14:45,475
12/13/18 14:45,452
12/13/18 14:45,451
12/13/18 14:45,479
12/13/18 14:45,454
12/13/18 14:45,484
12/13/18 14:45,507
12/13/18 14:45,519
12/13/18 14:45,521
12/13/18 14:45,487
12/13/18 14:45,517
12/13/18 14:45,508
12/13/18 14:45,513
12/13/18 14:45,518
12/13/18 14:45,520
12/13/18 14:45,522
12/13/18 14:45,523
12/13/18 14:45,516
12/13/18 14:45,513
12/13/18 14:45,514
12/13/18 14:45,509
12/13/18 14:45,482
12/13/18 14:45,491
12/13/18 14:45,509
12/13/18 14:45,514
12/13/18 14:45,517
12/13/18 14:45,511
12/13/18 14:45,464
12/13/18 14:45,500
12/13/18 14:45,515
12/13/18 14:45,522
12/13/18 14:45,521
12/13/18 14:45,521
12/13/18 14:45,516
12/13/18 14:45,514
12/13/18 14:45,512
12/13/18 14:45,508
12/13/18 14:45,504
12/13/18 14:45,505
12/13/18 14:45,500
12/13/18 14:45,501
12/13/18 14:45,500
12/13/18 14:45,470
12/13/18 14:45,482
12/13/18 14:45,498
12/13/18 14:45,483
12/13/18 14:45,593
12/13/18 14:45,584
12/13/18 14:45,526
12/13/18 14:45,524
12/13/18 14:45,501
12/13/18 14:45,468
12/13/18 14:45,451
12/13/18 14:45,470
12/13/18 14:45,477
12/13/18 14:45,486
12/13/18 14:45,485
12/13/18 14:45,460
12/13/18 14:45,487
12/13/18 14:45,501
12/13/18 14:45,501
12/13/18 14:45,499
12/13/18 14:45,467
12/13/18 14:45,472
12/13/18 14:45,500
12/13/18 14:45,515
12/13/18 14:45,517
12/13/18 14:45,514
12/13/18 14:45,517
12/13/18 14:45,512
12/13/18 14:45,508
12/13/18 14:45,470
12/13/18 14:45,486
12/13/18 14:45,514
12/13/18 14:45,521
12/13/18 14:45,523
12/13/18 14:45,520
12/13/18 14:45,518
12/13/18 14:45,515
12/13/18 14:45,510
12/13/18 14:45,508
12/13/18 14:45,506
12/13/18 14:45,504
12/13/18 14:45,503
12/13/18 14:45,504
12/13/18 14:45,484
12/13/18 14:45,499
12/13/18 14:45,515
12/13/18 14:45,516
12/13/18 14:45,510
12/13/18 14:45,486
12/13/18 14:45,480
12/13/18 14:45,515
12/13/18 14:45,513
12/13/18 14:45,496
12/13/18 14:45,506
12/13/18 14:45,512
12/13/18 14:45,513
12/13/18 14:45,512
12/13/18 14:45,509
12/13/18 14:45,474
12/13/18 14:45,560
12/13/18 14:45,589
12/13/18 14:45,533
12/13/18 14:45,534
12/13/18 14:45,512
12/13/18 14:45,498
12/13/18 14:45,491
12/13/18 14:45,486
12/13/18 14:45,482
12/13/18 14:45,469
12/13/18 14:45,460
12/13/18 14:45,482
12/13/18 14:45,486
12/13/18 14:45,484
12/13/18 14:45,484
12/13/18 14:45,484
12/13/18 14:45,485
12/13/18 14:45,469
12/13/18 14:45,474
12/13/18 14:45,471
12/13/18 14:45,507
12/13/18 14:45,521
12/13/18 14:45,519
12/13/18 14:45,516
12/13/18 14:45,516
12/13/18 14:45,513
12/13/18 14:45,513
12/13/18 14:45,510
12/13/18 14:45,510
12/13/18 14:45,511
12/13/18 14:45,510
12/13/18 14:45,489
12/13/18 14:45,504
12/13/18 14:45,514
12/13/18 14:45,503
12/13/18 14:45,497
12/13/18 14:45,507
12/13/18 14:45,497
12/13/18 14:45,507
12/13/18 14:45,529
12/13/18 14:45,527
12/13/18 14:45,524
12/13/18 14:45,519
12/13/18 14:45,516
12/13/18 14:45,509
12/13/18 14:45,505
12/13/18 14:45,502
12/13/18 14:45,500
12/13/18 14:45,499
12/13/18 14:45,492
12/13/18 14:45,455
12/13/18 14:45,497
12/13/18 14:45,513
12/13/18 14:45,515
12/13/18 14:45,516
12/13/18 14:45,553
12/13/18 14:45,607
12/13/18 14:45,543
12/13/18 14:45,529
12/13/18 14:45,478
12/13/18 14:45,484
12/13/18 14:45,480
12/13/18 14:45,487
12/13/18 14:45,485
12/13/18 14:45,485
12/13/18 14:45,479
12/13/18 14:45,476
12/13/18 14:45,473
12/13/18 14:45,447
12/13/18 14:45,478
12/13/18 14:45,491
12/13/18 14:45,497
12/13/18 14:45,499
12/13/18 14:45,499
12/13/18 14:45,500
12/13/18 14:45,497
12/13/18 14:45,502
12/13/18 14:45,495
12/13/18 14:45,493
12/13/18 14:45,514
12/13/18 14:45,500
12/13/18 14:45,509
12/13/18 14:45,514
12/13/18 14:45,517
12/13/18 14:45,515
12/13/18 14:45,498
12/13/18 14:45,523
12/13/18 14:45,526
12/13/18 14:54,506
12/13/18 14:54,507
12/13/18 14:54,513
12/13/18 14:54,513
12/13/18 14:54,512
12/13/18 14:54,510
12/13/18 14:54,485
12/13/18 14:54,502
12/13/18 14:54,497
12/13/18 14:54,509
12/13/18 14:54,516
12/13/18 14:54,517
12/13/18 14:54,520
12/13/18 14:54,517
12/13/18 14:54,515
12/13/18 14:54,513
12/13/18 14:54,509
12/13/18 14:54,506
12/13/18 14:54,504
12/13/18 14:54,505
12/13/18 14:54,497
12/13/18 14:54,484
12/13/18 14:54,505
12/13/18 14:54,511
12/13/18 14:54,509
12/13/18 14:54,506
12/13/18 14:54,494
12/13/18 14:54,572
12/13/18 14:54,580
12/13/18 14:54,526
12/13/18 14:54,472
12/13/18 14:54,495
12/13/18 14:54,501
12/13/18 14:54,496
12/13/18 14:54,485
12/13/18 14:54,480
12/13/18 14:54,478
12/13/18 14:54,475
12/13/18 14:54,476
12/13/18 14:54,474
12/13/18 14:54,451
12/13/18 14:54,460
12/13/18 14:54,479
12/13/18 14:54,493
12/13/18 14:54,501
12/13/18 14:54,505
12/13/18 14:54,480
12/13/18 14:54,508
12/13/18 14:54,519
12/13/18 14:54,520
12/13/18 14:54,518
12/13/18 14:54,514
12/13/18 14:54,500
12/13/18 14:54,493
12/13/18 14:54,501
12/13/18 14:54,496
12/13/18 14:54,521
12/13/18 14:54,528
12/13/18 14:54,524
12/13/18 14:54,520
12/13/18 14:54,516
12/13/18 14:54,510
12/13/18 14:54,482
12/13/18 14:54,509
12/13/18 14:54,518
12/13/18 14:54,517
12/13/18 14:54,514
12/13/18 14:54,509
12/13/18 14:54,491
12/13/18 14:54,500
12/13/18 14:54,507
12/13/18 14:54,507
12/13/18 14:54,484
12/13/18 14:54,512
12/13/18 14:54,501
12/13/18 14:54,468
12/13/18 14:54,509
12/13/18 14:54,522
12/13/18 14:54,523
12/13/18 14:54,522
12/13/18 14:54,514
12/13/18 14:54,503
12/13/18 14:54,581
12/13/18 14:54,586
12/13/18 14:54,534
12/13/18 14:54,521
12/13/18 14:54,495
12/13/18 14:54,486
12/13/18 14:54,458
12/13/18 14:54,461
12/13/18 14:54,470
12/13/18 14:54,477
12/13/18 14:54,479
12/13/18 14:54,478
12/13/18 14:54,480
12/13/18 14:54,480
12/13/18 14:54,481
12/13/18 14:54,474
12/13/18 14:54,460
12/13/18 14:54,469
12/13/18 14:54,503
12/13/18 14:54,514
12/13/18 14:54,514
12/13/18 14:54,516
12/13/18 14:54,515
12/13/18 14:54,513
12/13/18 14:54,505
12/13/18 14:54,500
12/13/18 14:54,523
12/13/18 14:54,524
12/13/18 14:54,521
12/13/18 14:54,517
12/13/18 14:54,516
12/13/18 14:54,511
12/13/18 14:54,508
12/13/18 14:54,504
12/13/18 14:54,498
12/13/18 14:54,467
12/13/18 14:54,504
12/13/18 14:54,515
12/13/18 14:54,518
12/13/18 14:54,517
12/13/18 14:54,517
12/13/18 14:54,513
12/13/18 14:54,515
12/13/18 14:54,508
12/13/18 14:54,484
12/13/18 14:54,492
12/13/18 14:54,502
12/13/18 14:54,510
12/13/18 14:54,509
12/13/18 14:54,509
12/13/18 14:54,466
12/13/18 14:54,488
12/13/18 14:54,511
12/13/18 14:54,510
12/13/18 14:54,567
12/13/18 14:54,616
12/13/18 14:54,548
12/13/18 14:54,508
12/13/18 14:54,510
12/13/18 14:54,485
12/13/18 14:54,482
12/13/18 14:54,456
12/13/18 14:54,487
12/13/18 14:54,492
12/13/18 14:54,491
12/13/18 14:54,488
12/13/18 14:54,483
12/13/18 14:54,479
12/13/18 14:54,430
12/13/18 14:54,466
12/13/18 14:54,490
12/13/18 14:54,498
12/13/18 14:54,500
12/13/18 14:54,503
12/13/18 14:54,505
12/13/18 14:54,505
12/13/18 14:54,488
12/13/18 14:54,491
12/13/18 14:54,503
12/13/18 14:54,511
12/13/18 14:54,516
12/13/18 14:54,518
12/13/18 14:54,517
12/13/18 14:54,518
12/13/18 14:54,490
12/13/18 14:54,517
12/13/18 14:54,523
12/13/18 14:54,503
12/13/18 14:54,502
12/13/18 14:54,509
12/13/18 14:54,514
12/13/18 14:54,511
12/13/18 14:54,513
12/13/18 14:54,512
12/13/18 14:54,514
12/13/18 14:54,498
12/13/18 14:54,501
12/13/18 14:54,519
12/13/18 14:54,520
12/13/18 14:54,516
12/13/18 14:54,507
12/13/18 14:54,505
12/13/18 14:54,502
12/13/18 14:54,484
12/13/18 14:54,487
12/13/18 14:54,486
12/13/18 14:54,487
12/13/18 14:54,510
12/13/18 14:54,527
12/13/18 14:54,628
12/13/18 14:54,558
12/13/18 14:54,536
12/13/18 14:54,514
12/13/18 14:54,448
12/13/18 14:54,472
12/13/18 14:54,489
12/13/18 14:54,491
12/13/18 14:54,488
12/13/18 14:54,481
12/13/18 14:54,479
12/13/18 14:54,476
12/13/18 14:54,451
12/13/18 14:54,465
12/13/18 14:54,476
12/13/18 14:54,491
12/13/18 14:54,496
12/13/18 14:54,502
12/13/18 14:54,503
12/13/18 14:54,505
12/13/18 14:54,508
12/13/18 14:54,480
12/13/18 14:54,506
12/13/18 14:54,498
12/13/18 14:54,506
12/13/18 14:54,515
12/13/18 14:54,519
12/13/18 14:54,520
12/13/18 14:54,519
12/13/18 14:54,518
12/13/18 14:54,517
12/13/18 14:54,511
12/13/18 14:54,481
12/13/18 14:54,490
12/13/18 14:54,505
12/13/18 14:54,516
12/13/18 14:54,518
12/13/18 14:54,518
12/13/18 14:54,518
12/13/18 14:54,516
12/13/18 14:54,511
12/13/18 14:54,513
12/13/18 14:54,488
12/13/18 14:54,503
12/13/18 14:54,515
12/13/18 14:54,515
12/13/18 14:54,510
12/13/18 14:54,508
12/13/18 14:54,504
12/13/18 14:54,502
12/13/18 14:54,494
12/13/18 14:54,465
12/13/18 14:54,496
12/13/18 14:54,540
12/13/18 14:54,621
12/13/18 14:54,552
12/13/18 14:54,537
12/13/18 14:54,513
12/13/18 14:54,498
12/13/18 14:54,481
12/13/18 14:54,480
12/13/18 14:54,476
12/13/18 14:54,471
12/13/18 14:54,454
12/13/18 14:54,475
12/13/18 14:54,485
12/13/18 14:54,482
12/13/18 14:54,464
12/13/18 14:54,473
12/13/18 14:54,485
12/13/18 14:54,493
12/13/18 14:54,497
12/13/18 14:54,499
12/13/18 14:54,502
12/13/18 14:54,506
12/13/18 14:54,493
12/13/18 14:54,498
12/13/18 14:54,519
12/13/18 14:54,519
12/13/18 14:54,516
12/13/18 14:54,499
12/13/18 14:54,507
12/13/18 14:54,514
12/13/18 14:54,494
12/13/18 14:54,518
12/13/18 14:54,527
12/13/18 14:54,519
12/13/18 14:54,496
12/13/18 14:54,501
12/13/18 14:54,510
12/13/18 14:54,508
12/13/18 14:54,496
12/13/18 14:54,524
12/13/18 14:54,527
12/13/18 14:54,523
12/13/18 14:54,521
12/13/18 14:54,516
12/13/18 14:54,512
12/13/18 14:54,462
12/13/18 14:54,487
12/13/18 14:54,506
12/13/18 14:54,513
12/13/18 14:54,514
12/13/18 14:54,510
12/13/18 14:54,510
12/13/18 14:54,505
12/13/18 14:54,504
12/13/18 14:54,503
12/13/18 14:54,480
12/13/18 14:54,583
12/13/18 14:54,542
12/13/18 14:54,521
12/13/18 14:54,507
12/13/18 14:54,502
12/13/18 14:54,467
12/13/18 14:54,474
12/13/18 14:54,470
12/13/18 14:54,483
12/13/18 14:54,487
12/13/18 14:54,487
12/13/18 14:54,485
12/13/18 14:54,485
12/13/18 14:54,487
12/13/18 14:54,487
12/13/18 14:54,464
12/13/18 14:54,490
12/13/18 14:54,486
12/13/18 14:54,494
12/13/18 14:54,501
12/13/18 14:54,509
12/13/18 14:54,511
12/13/18 14:54,511
12/13/18 14:54,513
12/13/18 14:54,509
12/13/18 14:54,494
12/13/18 14:54,520
12/13/18 14:54,523
12/13/18 14:54,521
12/13/18 14:54,499
12/13/18 14:54,500
12/13/18 14:54,509
12/13/18 14:54,511
12/13/18 14:54,511
12/13/18 14:54,510
12/13/18 14:54,509
12/13/18 14:54,512
12/13/18 14:54,509
12/13/18 14:54,510
12/13/18 14:54,508
12/13/18 14:54,506
12/13/18 14:54,494
12/13/18 14:54,478
12/13/18 14:54,506
12/13/18 14:54,515
12/13/18 14:54,516
12/13/18 14:54,517
12/13/18 14:54,515
12/13/18 14:54,512
12/13/18 14:54,506
12/13/18 14:54,480
12/13/18 14:54,503
12/13/18 14:54,516
12/13/18 14:54,514
12/13/18 14:54,509
12/13/18 14:54,585
12/13/18 14:54,560
12/13/18 14:54,530
12/13/18 14:54,499
12/13/18 14:54,462
12/13/18 14:54,488
12/13/18 14:54,488
12/13/18 14:54,486
12/13/18 14:54,485
12/13/18 14:54,480
12/13/18 14:54,475
12/13/18 14:54,455
12/13/18 14:54,476
12/13/18 14:54,468
12/13/18 14:54,482
12/13/18 14:54,490
12/13/18 14:54,494
12/13/18 14:54,497
12/13/18 14:54,501
12/13/18 14:54,475
12/13/18 14:54,501
12/13/18 14:54,519
12/13/18 14:54,520
12/13/18 14:54,519
12/13/18 14:54,514
12/13/18 14:54,514
12/13/18 14:54,511
12/13/18 14:54,510
12/13/18 14:54,477
12/13/18 14:54,486
12/13/18 14:54,516
12/13/18 14:54,521
12/13/18 14:54,517
12/13/18 14:54,517
12/13/18 14:54,489
12/13/18 14:54,508
12/13/18 14:54,520
12/13/18 14:54,520
12/13/18 14:54,518
12/13/18 14:54,514
12/13/18 14:54,514
12/13/18 14:54,492
12/13/18 14:54,495
12/13/18 14:54,502
12/13/18 14:54,506
12/13/18 14:54,505
12/13/18 14:54,485
12/13/18 14:54,510
12/13/18 14:54,517
12/13/18 14:54,511
12/13/18 14:54,509
12/13/18 14:54,509
12/13/18 14:54,507
12/13/18 14:54,503
12/13/18 14:54,500
12/13/18 14:54,562
12/13/18 14:54,608
12/13/18 14:54,533
12/13/18 14:54,516
12/13/18 14:54,459
12/13/18 14:54,485
12/13/18 14:54,493
12/13/18 14:54,487
12/13/18 14:54,463
12/13/18 14:54,444
12/13/18 14:54,482
12/13/18 14:54,491
12/13/18 14:54,493
12/13/18 14:54,495
12/13/18 14:54,493
12/13/18 14:54,494
12/13/18 14:54,494
12/13/18 14:54,493
12/13/18 14:54,495
12/13/18 14:54,493
12/13/18 14:54,476
12/13/18 14:54,497
12/13/18 14:54,514
12/13/18 14:54,494
12/13/18 14:54,500
12/13/18 14:54,513
12/13/18 14:54,516
12/13/18 14:54,517
12/13/18 14:54,518
12/13/18 14:54,514
12/13/18 14:54,497
12/13/18 14:54,519
12/13/18 14:54,522
12/13/18 14:54,518
12/13/18 14:54,513
12/13/18 14:54,510
12/13/18 14:54,506
12/13/18 14:54,494
12/13/18 14:54,488
12/13/18 14:54,487
12/13/18 14:54,517
12/13/18 14:54,523
12/13/18 14:54,522
12/13/18 14:54,518
12/13/18 14:54,514
12/13/18 14:54,509
12/13/18 14:54,506
12/13/18 14:54,494
12/13/18 14:54,469
12/13/18 14:54,496
12/13/18 14:54,509
12/13/18 14:54,512
12/13/18 14:54,513
12/13/18 14:54,509
12/13/18 14:54,509
12/13/18 14:54,588
12/13/18 14:54,566
12/13/18 14:54,535
12/13/18 14:54,479
12/13/18 14:54,476
12/13/18 14:54,489
12/13/18 14:54,489
12/13/18 14:54,490
12/13/18 14:54,488
12/13/18 14:54,481
12/13/18 14:54,458
12/13/18 14:54,464
12/13/18 14:54,469
12/13/18 14:54,480
12/13/18 14:54,490
12/13/18 14:54,493
12/13/18 14:54,495
12/13/18 14:54,498
12/13/18 14:54,499
12/13/18 14:54,502
12/13/18 14:54,504
12/13/18 14:54,475
12/13/18 14:54,488
12/13/18 14:54,509
12/13/18 14:54,516
12/13/18 14:54,517
12/13/18 14:54,520
12/13/18 14:54,520
12/13/18 14:54,516
12/13/18 14:54,517
12/13/18 14:54,515
12/13/18 14:54,515
12/13/18 14:54,503
12/13/18 14:54,495
12/13/18 14:54,511
12/13/18 14:54,497
12/13/18 14:54,507
12/13/18 14:54,511
12/13/18 14:54,514
12/13/18 14:54,516
12/13/18 14:54,517
12/13/18 14:54,487
12/13/18 14:54,508
12/13/18 14:54,521
12/13/18 14:54,519
12/13/18 14:54,515
12/13/18 14:54,509
12/13/18 14:54,508
12/13/18 14:54,505
12/13/18 14:54,501
12/13/18 14:54,496
12/13/18 14:54,464
12/13/18 14:54,478
12/13/18 14:54,505
12/13/18 14:54,514
12/13/18 14:54,533
12/13/18 14:54,632
12/13/18 14:54,551
12/13/18 14:54,529
12/13/18 14:54,515
12/13/18 14:54,500
12/13/18 14:54,488
12/13/18 14:54,450
12/13/18 14:54,459
12/13/18 14:54,464
12/13/18 14:54,476
12/13/18 14:54,479
12/13/18 14:54,482
12/13/18 14:54,481
12/13/18 14:54,480
12/13/18 14:54,467
12/13/18 14:54,497
12/13/18 14:54,487
12/13/18 14:54,485
12/13/18 14:54,499
12/13/18 14:54,477
12/13/18 14:54,510
12/13/18 14:54,501
12/13/18 14:54,506
12/13/18 14:54,515
12/13/18 14:54,519
12/13/18 14:54,521
12/13/18 14:54,519
12/13/18 14:54,519
12/13/18 14:54,519
12/13/18 14:54,518
12/13/18 14:54,514
12/13/18 14:54,512
12/13/18 14:54,479
12/13/18 14:54,493
12/13/18 14:54,506
12/13/18 14:54,516
12/13/18 14:54,518
12/13/18 14:54,517
12/13/18 14:54,517
12/13/18 14:54,516
12/13/18 14:54,513
12/13/18 14:54,512
12/13/18 14:54,485
12/13/18 14:54,512
12/13/18 14:54,518
12/13/18 14:54,515
12/13/18 14:54,497
12/13/18 14:54,484
12/13/18 14:54,477
12/13/18 14:54,511
12/13/18 14:54,515
12/13/18 14:54,489
12/13/18 14:54,514
12/13/18 14:54,516
12/13/18 14:54,577
12/13/18 14:54,609
12/13/18 14:54,541
12/13/18 14:54,528
12/13/18 14:54,503
12/13/18 14:54,488
12/13/18 14:54,454
12/13/18 14:54,445
12/13/18 14:54,472
12/13/18 14:54,481
12/13/18 14:54,483
12/13/18 14:54,479
12/13/18 14:54,479
12/13/18 14:54,480
12/13/18 14:54,484
12/13/18 14:54,486
12/13/18 14:54,484
12/13/18 14:54,445
12/13/18 14:54,477
12/13/18 14:54,503
12/13/18 14:54,512
12/13/18 14:54,516
12/13/18 14:54,517
12/13/18 14:54,514
12/13/18 14:54,514
12/13/18 15:03,524
12/13/18 15:03,525
12/13/18 15:03,527
12/13/18 15:03,524
12/13/18 15:03,493
12/13/18 15:03,511
12/13/18 15:03,499
12/13/18 15:03,505
12/13/18 15:03,490
12/13/18 15:03,522
12/13/18 15:03,529
12/13/18 15:03,529
12/13/18 15:03,525
12/13/18 15:03,518
12/13/18 15:03,511
12/13/18 15:03,506
12/13/18 15:03,499
12/13/18 15:03,457
12/13/18 15:03,492
12/13/18 15:03,504
12/13/18 15:03,508
12/13/18 15:03,510
12/13/18 15:03,507
12/13/18 15:03,507
12/13/18 15:03,491
12/13/18 15:03,540
12/13/18 15:03,574
12/13/18 15:03,533
12/13/18 15:03,527
12/13/18 15:03,480
12/13/18 15:03,499
12/13/18 15:03,502
12/13/18 15:03,494
12/13/18 15:03,478
12/13/18 15:03,459
12/13/18 15:03,458
12/13/18 15:03,470
12/13/18 15:03,478
12/13/18 15:03,483
12/13/18 15:03,484
12/13/18 15:03,485
12/13/18 15:03,476
12/13/18 15:03,479
12/13/18 15:03,493
12/13/18 15:03,502
12/13/18 15:03,502
12/13/18 15:03,502
12/13/18 15:03,526
12/13/18 15:03,527
12/13/18 15:03,523
12/13/18 15:03,519
12/13/18 15:03,519
12/13/18 15:03,465
12/13/18 15:03,495
12/13/18 15:03,518
12/13/18 15:03,524
12/13/18 15:03,525
12/13/18 15:03,521
12/13/18 15:03,517
12/13/18 15:03,511
12/13/18 15:03,508
12/13/18 15:03,506
12/13/18 15:03,506
12/13/18 15:03,500
12/13/18 15:03,471
12/13/18 15:03,495
12/13/18 15:03,510
12/13/18 15:03,513
12/13/18 15:03,484
12/13/18 15:03,491
12/13/18 15:03,520
12/13/18 15:03,519
12/13/18 15:03,477
12/13/18 15:03,511
12/13/18 15:03,524
12/13/18 15:03,527
12/13/18 15:03,525
12/13/18 15:03,520
12/13/18 15:03,517
12/13/18 15:03,511
12/13/18 15:03,507
12/13/18 15:03,437
12/13/18 15:03,576
12/13/18 15:03,570
12/13/18 15:03,542
12/13/18 15:03,528
12/13/18 15:03,508
12/13/18 15:03,502
12/13/18 15:03,471
12/13/18 15:03,430
12/13/18 15:03,464
12/13/18 15:03,484
12/13/18 15:03,487
12/13/18 15:03,486
12/13/18 15:03,483
12/13/18 15:03,472
12/13/18 15:03,457
12/13/18 15:03,476
12/13/18 15:03,493
12/13/18 15:03,498
12/13/18 15:03,505
12/13/18 15:03,500
12/13/18 15:03,466
12/13/18 15:03,491
12/13/18 15:03,512
12/13/18 15:03,524
12/13/18 15:03,523
12/13/18 15:03,522
12/13/18 15:03,520
12/13/18 15:03,518
12/13/18 15:03,492
12/13/18 15:03,480
12/13/18 15:03,510
12/13/18 15:03,520
12/13/18 15:03,518
12/13/18 15:03,501
12/13/18 15:03,523
12/13/18 15:03,526
12/13/18 15:03,519
12/13/18 15:03,497
12/13/18 15:03,467
12/13/18 15:03,505
12/13/18 15:03,492
12/13/18 15:03,501
12/13/18 15:03,499
12/13/18 15:03,514
12/13/18 15:03,531
12/13/18 15:03,531
12/13/18 15:03,526
12/13/18 15:03,473
12/13/18 15:03,492
12/13/18 15:03,513
12/13/18 15:03,520
12/13/18 15:03,517
12/13/18 15:03,515
12/13/18 15:03,513
12/13/18 15:03,506
12/13/18 15:03,523
12/13/18 15:03,585
12/13/18 15:03,531
12/13/18 15:03,531
12/13/18 15:03,516
12/13/18 15:03,504
12/13/18 15:03,490
12/13/18 15:03,485
12/13/18 15:03,482
12/13/18 15:03,478
12/13/18 15:03,475
12/13/18 15:03,469
12/13/18 15:03,441
12/13/18 15:03,457
12/13/18 15:03,477
12/13/18 15:03,483
12/13/18 15:03,451
12/13/18 15:03,484
12/13/18 15:03,505
12/13/18 15:03,511
12/13/18 15:03,516
12/13/18 15:03,517
12/13/18 15:03,512
12/13/18 15:03,476
12/13/18 15:03,499
12/13/18 15:03,519
12/13/18 15:03,525
12/13/18 15:03,505
12/13/18 15:03,518
12/13/18 15:03,524
12/13/18 15:03,478
12/13/18 15:03,510
12/13/18 15:03,500
12/13/18 15:03,506
12/13/18 15:03,520
12/13/18 15:03,523
12/13/18 15:03,524
12/13/18 15:03,523
12/13/18 15:03,519
12/13/18 15:03,465
12/13/18 15:03,505
12/13/18 15:03,524
12/13/18 15:03,504
12/13/18 15:03,512
12/13/18 15:03,503
12/13/18 15:03,516
12/13/18 15:03,492
12/13/18 15:03,486
12/13/18 15:03,513
12/13/18 15:03,523
12/13/18 15:03,524
12/13/18 15:03,519
12/13/18 15:03,495
12/13/18 15:03,518
12/13/18 15:03,489
12/13/18 15:03,566
12/13/18 15:03,563
12/13/18 15:03,543
12/13/18 15:03,532
12/13/18 15:03,510
12/13/18 15:03,466
12/13/18 15:03,453
12/13/18 15:03,467
12/13/18 15:03,461
12/13/18 15:03,464
12/13/18 15:03,473
12/13/18 15:03,485
12/13/18 15:03,488
12/13/18 15:03,495
12/13/18 15:03,457
12/13/18 15:03,463
12/13/18 15:03,492
12/13/18 15:03,483
12/13/18 15:03,471
12/13/18 15:03,500
12/13/18 15:03,520
12/13/18 15:03,527
12/13/18 15:03,525
12/13/18 15:03,526
12/13/18 15:03,522
12/13/18 15:03,521
12/13/18 15:03,516
12/13/18 15:03,514
12/13/18 15:03,513
12/13/18 15:03,470
12/13/18 15:03,490
12/13/18 15:03,513
12/13/18 15:03,517
12/13/18 15:03,473
12/13/18 15:03,495
12/13/18 15:03,496
12/13/18 15:03,494
12/13/18 15:03,504
12/13/18 15:03,521
12/13/18 15:03,531
12/13/18 15:03,534
12/13/18 15:03,530
12/13/18 15:03,526
12/13/18 15:03,522
12/13/18 15:03,516
12/13/18 15:03,510
12/13/18 15:03,487
12/13/18 15:03,493
12/13/18 15:03,490
12/13/18 15:03,489
12/13/18 15:03,502
12/13/18 15:03,507
12/13/18 15:03,506
12/13/18 15:03,507
12/13/18 15:03,500
12/13/18 15:03,478
12/13/18 15:03,623
12/13/18 15:03,562
12/13/18 15:03,539
12/13/18 15:03,520
12/13/18 15:03,502
12/13/18 15:03,482
12/13/18 15:03,443
12/13/18 15:03,449
12/13/18 15:03,471
12/13/18 15:03,481
12/13/18 15:03,482
12/13/18 15:03,480
12/13/18 15:03,450
12/13/18 15:03,481
12/13/18 15:03,469
12/13/18 15:03,475
12/13/18 15:03,495
12/13/18 15:03,502
12/13/18 15:03,502
12/13/18 15:03,509
12/13/18 15:03,507
12/13/18 15:03,480
12/13/18 15:03,505
12/13/18 15:03,518
12/13/18 15:03,522
12/13/18 15:03,503
12/13/18 15:03,491
12/13/18 15:03,506
12/13/18 15:03,514
12/13/18 15:03,520
12/13/18 15:03,517
12/13/18 15:03,517
12/13/18 15:03,515
12/13/18 15:03,512
12/13/18 15:03,496
12/13/18 15:03,480
12/13/18 15:03,497
12/13/18 15:03,515
12/13/18 15:03,520
12/13/18 15:03,523
12/13/18 15:03,521
12/13/18 15:03,521
12/13/18 15:03,517
12/13/18 15:03,509
12/13/18 15:03,509
12/13/18 15:03,504
12/13/18 15:03,503
12/13/18 15:03,501
12/13/18 15:03,501
12/13/18 15:03,501
12/13/18 15:03,474
12/13/18 15:03,502
12/13/18 15:03,498
12/13/18 15:03,496
12/13/18 15:03,487
12/13/18 15:03,521
12/13/18 15:03,632
12/13/18 15:03,572
12/13/18 15:03,550
12/13/18 15:03,524
12/13/18 15:03,503
12/13/18 15:03,483
12/13/18 15:03,474
12/13/18 15:03,473
12/13/18 15:03,469
12/13/18 15:03,468
12/13/18 15:03,467
12/13/18 15:03,446
12/13/18 15:03,432
12/13/18 15:03,476
12/13/18 15:03,494
12/13/18 15:03,499
12/13/18 15:03,500
12/13/18 15:03,501
12/13/18 15:03,502
12/13/18 15:03,503
12/13/18 15:03,506
12/13/18 15:03,504
12/13/18 15:03,482
12/13/18 15:03,473
12/13/18 15:03,503
12/13/18 15:03,528
12/13/18 15:03,531
12/13/18 15:03,524
12/13/18 15:03,523
12/13/18 15:03,523
12/13/18 15:03,519
12/13/18 15:03,515
12/13/18 15:03,477
12/13/18 15:03,487
12/13/18 15:03,510
12/13/18 15:03,521
12/13/18 15:03,519
12/13/18 15:03,516
12/13/18 15:03,518
12/13/18 15:03,513
12/13/18 15:03,511
12/13/18 15:03,482
12/13/18 15:03,512
12/13/18 15:03,504
12/13/18 15:03,495
12/13/18 15:03,507
12/13/18 15:03,511
12/13/18 15:03,514
12/13/18 15:03,510
12/13/18 15:03,507
12/13/18 15:03,504
12/13/18 15:03,478
12/13/18 15:03,503
12/13/18 15:03,486
12/13/18 15:03,499
12/13/18 15:03,528
12/13/18 15:03,629
12/13/18 15:03,552
12/13/18 15:03,535
12/13/18 15:03,510
12/13/18 15:03,481
12/13/18 15:03,475
12/13/18 15:03,476
12/13/18 15:03,482
12/13/18 15:03,484
12/13/18 15:03,483
12/13/18 15:03,480
12/13/18 15:03,479
12/13/18 15:03,479
12/13/18 15:03,476
12/13/18 15:03,460
12/13/18 15:03,490
12/13/18 15:03,499
12/13/18 15:03,501
12/13/18 15:03,500
12/13/18 15:03,493
12/13/18 15:03,486
12/13/18 15:03,490
12/13/18 15:03,507
12/13/18 15:03,515
12/13/18 15:03,519
12/13/18 15:03,517
12/13/18 15:03,518
12/13/18 15:03,510
12/13/18 15:03,469
12/13/18 15:03,508
12/13/18 15:03,521
12/13/18 15:03,524
12/13/18 15:03,523
12/13/18 15:03,521
12/13/18 15:03,515
12/13/18 15:03,512
12/13/18 15:03,510
12/13/18 15:03,508
12/13/18 15:03,475
12/13/18 15:03,492
12/13/18 15:03,508
12/13/18 15:03,517
12/13/18 15:03,518
12/13/18 15:03,519
12/13/18 15:03,516
12/13/18 15:03,486
12/13/18 15:03,486
12/13/18 15:03,501
12/13/18 15:03,508
12/13/18 15:03,514
12/13/18 15:03,514
12/13/18 15:03,512
12/13/18 15:03,509
12/13/18 15:03,506
12/13/18 15:03,508
12/13/18 15:03,566
12/13/18 15:03,537
12/13/18 15:03,523
12/13/18 15:03,519
12/13/18 15:03,517
12/13/18 15:03,503
12/13/18 15:03,488
12/13/18 15:03,480
12/13/18 15:03,480
12/13/18 15:03,454
12/13/18 15:03,468
12/13/18 15:03,465
12/13/18 15:03,478
12/13/18 15:03,486
12/13/18 15:03,490
12/13/18 15:03,490
12/13/18 15:03,492
12/13/18 15:03,493
12/13/18 15:03,476
12/13/18 15:03,506
12/13/18 15:03,512
12/13/18 15:03,514
12/13/18 15:03,494
12/13/18 15:03,489
12/13/18 15:03,502
12/13/18 15:03,509
12/13/18 15:03,505
12/13/18 15:03,488
12/13/18 15:03,504
12/13/18 15:03,518
12/13/18 15:03,523
12/13/18 15:03,524
12/13/18 15:03,521
12/13/18 15:03,519
12/13/18 15:03,511
12/13/18 15:03,497
12/13/18 15:03,511
12/13/18 15:03,497
12/13/18 15:03,507
12/13/18 15:03,512
12/13/18 15:03,514
12/13/18 15:03,516
12/13/18 15:03,516
12/13/18 15:03,489
12/13/18 15:03,486
12/13/18 15:03,500
12/13/18 15:03,513
12/13/18 15:03,515
12/13/18 15:03,515
12/13/18 15:03,515
12/13/18 15:03,510
12/13/18 15:03,507
12/13/18 15:03,501
12/13/18 15:03,490
12/13/18 15:03,496
12/13/18 15:03,495
12/13/18 15:03,497
12/13/18 15:03,615
12/13/18 15:03,531
12/13/18 15:03,519
12/13/18 15:03,511
12/13/18 15:03,507
12/13/18 15:03,496
12/13/18 15:03,492
12/13/18 15:03,488
12/13/18 15:03,484
12/13/18 15:03,484
12/13/18 15:03,480
12/13/18 15:03,454
12/13/18 15:03,482
12/13/18 15:03,487
12/13/18 15:03,491
12/13/18 15:03,490
12/13/18 15:03,488
12/13/18 15:03,468
12/13/18 15:03,476
12/13/18 15:03,491
12/13/18 15:03,498
12/13/18 15:03,506
12/13/18 15:03,508
12/13/18 15:03,508
12/13/18 15:03,507
12/13/18 15:03,509
12/13/18 15:03,514
12/13/18 15:03,515
12/13/18 15:03,503
12/13/18 15:03,502
12/13/18 15:03,520
12/13/18 15:03,519
12/13/18 15:03,517
12/13/18 15:03,513
12/13/18 15:03,493
12/13/18 15:03,471
12/13/18 15:03,498
12/13/18 15:03,518
12/13/18 15:03,523
12/13/18 15:03,520
12/13/18 15:03,494
12/13/18 15:03,511
12/13/18 15:03,518
12/13/18 15:03,499
12/13/18 15:03,509
12/13/18 15:03,512
12/13/18 15:03,514
12/13/18 15:03,512
12/13/18 15:03,508
12/13/18 15:03,486
12/13/18 15:03,464
12/13/18 15:03,502
12/13/18 15:03,518
12/13/18 15:03,517
12/13/18 15:03,515
12/13/18 15:03,502
12/13/18 15:03,566
12/13/18 15:03,599
12/13/18 15:03,537
12/13/18 15:03,525
12/13/18 15:03,479
12/13/18 15:03,451
12/13/18 15:03,481
12/13/18 15:03,490
12/13/18 15:03,491
12/13/18 15:03,486
12/13/18 15:03,483
12/13/18 15:03,478
12/13/18 15:03,432
12/13/18 15:03,468
12/13/18 15:03,486
12/13/18 15:03,491
12/13/18 15:03,498
12/13/18 15:03,501
12/13/18 15:03,500
12/13/18 15:03,501
12/13/18 15:03,489
12/13/18 15:03,463
12/13/18 15:03,494
12/13/18 15:03,516
12/13/18 15:03,523
12/13/18 15:03,526
12/13/18 15:03,522
12/13/18 15:03,521
12/13/18 15:03,519
12/13/18 15:03,517
12/13/18 15:03,511
12/13/18 15:03,495
12/13/18 15:03,517
12/13/18 15:03,520
12/13/18 15:03,516
12/13/18 15:03,515
12/13/18 15:03,505
12/13/18 15:03,466
12/13/18 15:03,501
12/13/18 15:03,511
12/13/18 15:03,520
12/13/18 15:03,519
12/13/18 15:03,517
12/13/18 15:03,516
12/13/18 15:03,515
12/13/18 15:03,509
12/13/18 15:03,505
12/13/18 15:03,502
12/13/18 15:03,502
12/13/18 15:03,499
12/13/18 15:03,492
12/13/18 15:03,456
12/13/18 15:03,493
12/13/18 15:03,511
12/13/18 15:03,465
12/13/18 15:03,493
12/13/18 15:03,581
12/13/18 15:03,614
12/13/18 15:03,556
12/13/18 15:03,544
12/13/18 15:03,518
12/13/18 15:03,499
12/13/18 15:03,492
12/13/18 15:03,448
12/13/18 15:03,455
12/13/18 15:03,473
12/13/18 15:03,480
12/13/18 15:03,482
12/13/18 15:03,484
12/13/18 15:03,483
12/13/18 15:03,486
12/13/18 15:03,464
12/13/18 15:12,455
12/13/18 15:12,452
12/13/18 15:12,491
12/13/18 15:12,515
12/13/18 15:12,520
12/13/18 15:12,523
12/13/18 15:12,521
12/13/18 15:12,520
12/13/18 15:12,519
12/13/18 15:12,514
12/13/18 15:12,507
12/13/18 15:12,493
12/13/18 15:12,501
12/13/18 15:12,508
12/13/18 15:12,509
12/13/18 15:12,513
12/13/18 15:12,512
12/13/18 15:12,513
12/13/18 15:12,487
12/13/18 15:12,514
12/13/18 15:12,526
12/13/18 15:12,523
12/13/18 15:12,521
12/13/18 15:12,515
12/13/18 15:12,508
12/13/18 15:12,486
12/13/18 15:12,488
12/13/18 15:12,483
12/13/18 15:12,495
12/13/18 15:12,517
12/13/18 15:12,519
12/13/18 15:12,515
12/13/18 15:12,497
12/13/18 15:12,491
12/13/18 15:12,576
12/13/18 15:12,602
12/13/18 15:12,539
12/13/18 15:12,527
12/13/18 15:12,511
12/13/18 15:12,492
12/13/18 15:12,480
12/13/18 15:12,460
12/13/18 15:12,485
12/13/18 15:12,466
12/13/18 15:12,469
12/13/18 15:12,476
12/13/18 15:12,480
12/13/18 15:12,482
12/13/18 15:12,487
12/13/18 15:12,488
12/13/18 15:12,490
12/13/18 15:12,492
12/13/18 15:12,495
12/13/18 15:12,499
12/13/18 15:12,499
12/13/18 15:12,496
12/13/18 15:12,491
12/13/18 15:12,514
12/13/18 15:12,520
12/13/18 15:12,518
12/13/18 15:12,518
12/13/18 15:12,515
12/13/18 15:12,513
12/13/18 15:12,485
12/13/18 15:12,509
12/13/18 15:12,520
12/13/18 15:12,518
12/13/18 15:12,514
12/13/18 15:12,510
12/13/18 15:12,505
12/13/18 15:12,507
12/13/18 15:12,507
12/13/18 15:12,505
12/13/18 15:12,503
12/13/18 15:12,467
12/13/18 15:12,500
12/13/18 15:12,514
12/13/18 15:12,517
12/13/18 15:12,518
12/13/18 15:12,514
12/13/18 15:12,512
12/13/18 15:12,506
12/13/18 15:12,507
12/13/18 15:12,505
12/13/18 15:12,501
12/13/18 15:12,503
12/13/18 15:12,497
12/13/18 15:12,493
12/13/18 15:12,584
12/13/18 15:12,545
12/13/18 15:12,506
12/13/18 15:12,516
12/13/18 15:12,515
12/13/18 15:12,503
12/13/18 15:12,495
12/13/18 15:12,488
12/13/18 15:12,483
12/13/18 15:12,477
12/13/18 15:12,456
12/13/18 15:12,437
12/13/18 15:12,475
12/13/18 15:12,464
12/13/18 15:12,472
12/13/18 15:12,487
12/13/18 15:12,499
12/13/18 15:12,506
12/13/18 15:12,508
12/13/18 15:12,511
12/13/18 15:12,513
12/13/18 15:12,511
12/13/18 15:12,509
12/13/18 15:12,491
12/13/18 15:12,521
12/13/18 15:12,523
12/13/18 15:12,522
12/13/18 15:12,499
12/13/18 15:12,505
12/13/18 15:12,513
12/13/18 15:12,514
12/13/18 15:12,513
12/13/18 15:12,489
12/13/18 15:12,513
12/13/18 15:12,520
12/13/18 15:12,519
12/13/18 15:12,513
12/13/18 15:12,516
12/13/18 15:12,512
12/13/18 15:12,514
12/13/18 15:12,512
12/13/18 15:12,507
12/13/18 15:12,507
12/13/18 15:12,505
12/13/18 15:12,499
12/13/18 15:12,457
12/13/18 15:12,493
12/13/18 15:12,510
12/13/18 15:12,511
12/13/18 15:12,514
12/13/18 15:12,511
12/13/18 15:12,510
12/13/18 15:12,505
12/13/18 15:12,538
12/13/18 15:12,597
12/13/18 15:12,526
12/13/18 15:12,504
12/13/18 15:12,519
12/13/18 15:12,513
12/13/18 15:12,498
12/13/18 15:12,491
12/13/18 15:12,487
12/13/18 15:12,483
12/13/18 15:12,476
12/13/18 15:12,475
12/13/18 15:12,469
12/13/18 15:12,472
12/13/18 15:12,475
12/13/18 15:12,454
12/13/18 15:12,458
12/13/18 15:12,484
12/13/18 15:12,500
12/13/18 15:12,507
12/13/18 15:12,510
12/13/18 15:12,509
12/13/18 15:12,511
12/13/18 15:12,510
12/13/18 15:12,483
12/13/18 15:12,511
12/13/18 15:12,503
12/13/18 15:12,508
12/13/18 15:12,516
12/13/18 15:12,520
12/13/18 15:12,516
12/13/18 15:12,501
12/13/18 15:12,522
12/13/18 15:12,524
12/13/18 15:12,521
12/13/18 15:12,517
12/13/18 15:12,514
12/13/18 15:12,511
12/13/18 15:12,509
12/13/18 15:12,507
12/13/18 15:12,506
12/13/18 15:12,506
12/13/18 15:12,488
12/13/18 15:12,495
12/13/18 15:12,485
12/13/18 15:12,498
12/13/18 15:12,516
12/13/18 15:12,519
12/13/18 15:12,517
12/13/18 15:12,511
12/13/18 15:12,507
12/13/18 15:12,508
12/13/18 15:12,503
12/13/18 15:12,514
12/13/18 15:12,570
12/13/18 15:12,571
12/13/18 15:12,535
12/13/18 15:12,514
12/13/18 15:12,477
12/13/18 15:12,459
12/13/18 15:12,475
12/13/18 15:12,486
12/13/18 15:12,486
12/13/18 15:12,487
12/13/18 15:12,482
12/13/18 15:12,475
12/13/18 15:12,476
12/13/18 15:12,478
12/13/18 15:12,469
12/13/18 15:12,445
12/13/18 15:12,480
12/13/18 15:12,499
12/13/18 15:12,507
12/13/18 15:12,511
12/13/18 15:12,510
12/13/18 15:12,513
12/13/18 15:12,514
12/13/18 15:12,510
12/13/18 15:12,484
12/13/18 15:12,513
12/13/18 15:12,520
12/13/18 15:12,522
12/13/18 15:12,520
12/13/18 15:12,517
12/13/18 15:12,513
12/13/18 15:12,493
12/13/18 15:12,494
12/13/18 15:12,488
12/13/18 15:12,495
12/13/18 15:12,520
12/13/18 15:12,522
12/13/18 15:12,523
12/13/18 15:12,520
12/13/18 15:12,517
12/13/18 15:12,516
12/13/18 15:12,513
12/13/18 15:12,510
12/13/18 15:12,510
12/13/18 15:12,507
12/13/18 15:12,503
12/13/18 15:12,501
12/13/18 15:12,487
12/13/18 15:12,456
12/13/18 15:12,495
12/13/18 15:12,511
12/13/18 15:12,516
12/13/18 15:12,529
12/13/18 15:12,583
12/13/18 15:12,579
12/13/18 15:12,540
12/13/18 15:12,517
12/13/18 15:12,498
12/13/18 15:12,486
12/13/18 15:12,485
12/13/18 15:12,480
12/13/18 15:12,473
12/13/18 15:12,473
12/13/18 15:12,470
12/13/18 15:12,447
12/13/18 15:12,465
12/13/18 15:12,468
12/13/18 15:12,481
12/13/18 15:12,488
12/13/18 15:12,497
12/13/18 15:12,501
12/13/18 15:12,501
12/13/18 15:12,504
12/13/18 15:12,505
12/13/18 15:12,507
12/13/18 15:12,506
12/13/18 15:12,506
12/13/18 15:12,507
12/13/18 15:12,468
12/13/18 15:12,494
12/13/18 15:12,516
12/13/18 15:12,525
12/13/18 15:12,524
12/13/18 15:12,524
12/13/18 15:12,521
12/13/18 15:12,516
12/13/18 15:12,513
12/13/18 15:12,514
12/13/18 15:12,507
12/13/18 15:12,509
12/13/18 15:12,508
12/13/18 15:12,480
12/13/18 15:12,509
12/13/18 15:12,502
12/13/18 15:12,507
12/13/18 15:12,514
12/13/18 15:12,515
12/13/18 15:12,514
12/13/18 15:12,510
12/13/18 15:12,508
12/13/18 15:12,505
12/13/18 15:12,503
12/13/18 15:12,507
12/13/18 15:12,501
12/13/18 15:12,455
12/13/18 15:12,491
12/13/18 15:12,563
12/13/18 15:12,630
12/13/18 15:12,549
12/13/18 15:12,532
12/13/18 15:12,516
12/13/18 15:12,499
12/13/18 15:12,484
12/13/18 15:12,452
12/13/18 15:12,454
12/13/18 15:12,470
12/13/18 15:12,482
12/13/18 15:12,484
12/13/18 15:12,485
12/13/18 15:12,485
12/13/18 15:12,483
12/13/18 15:12,486
12/13/18 15:12,489
12/13/18 15:12,489
12/13/18 15:12,470
12/13/18 15:12,501
12/13/18 15:12,506
12/13/18 15:12,491
12/13/18 15:12,499
12/13/18 15:12,509
12/13/18 15:12,514
12/13/18 15:12,514
12/13/18 15:12,517
12/13/18 15:12,486
12/13/18 15:12,518
12/13/18 15:12,524
12/13/18 15:12,526
12/13/18 15:12,523
12/13/18 15:12,517
12/13/18 15:12,511
12/13/18 15:12,488
12/13/18 15:12,489
12/13/18 15:12,503
12/13/18 15:12,506
12/13/18 15:12,509
12/13/18 15:12,487
12/13/18 15:12,517
12/13/18 15:12,526
12/13/18 15:12,522
12/13/18 15:12,520
12/13/18 15:12,513
12/13/18 15:12,490
12/13/18 15:12,468
12/13/18 15:12,495
12/13/18 15:12,515
12/13/18 15:12,514
12/13/18 15:12,514
12/13/18 15:12,513
12/13/18 15:12,508
12/13/18 15:12,513
12/13/18 15:12,562
12/13/18 15:12,573
12/13/18 15:12,495
12/13/18 15:12,504
12/13/18 15:12,511
12/13/18 15:12,500
12/13/18 15:12,492
12/13/18 15:12,490
12/13/18 15:12,485
12/13/18 15:12,480
12/13/18 15:12,475
12/13/18 15:12,451
12/13/18 15:12,476
12/13/18 15:12,485
12/13/18 15:12,486
12/13/18 15:12,489
12/13/18 15:12,489
12/13/18 15:12,485
12/13/18 15:12,471
12/13/18 15:12,485
12/13/18 15:12,496
12/13/18 15:12,505
12/13/18 15:12,512
12/13/18 15:12,514
12/13/18 15:12,516
12/13/18 15:12,515
12/13/18 15:12,516
12/13/18 15:12,481
12/13/18 15:12,488
12/13/18 15:12,512
12/13/18 15:12,523
12/13/18 15:12,524
12/13/18 15:12,522
12/13/18 15:12,517
12/13/18 15:12,514
12/13/18 15:12,513
12/13/18 15:12,508
12/13/18 15:12,480
12/13/18 15:12,506
12/13/18 15:12,522
12/13/18 15:12,516
12/13/18 15:12,500
12/13/18 15:12,506
12/13/18 15:12,510
12/13/18 15:12,511
12/13/18 15:12,511
12/13/18 15:12,509
12/13/18 15:12,505
12/13/18 15:12,479
12/13/18 15:12,506
12/13/18 15:12,513
12/13/18 15:12,498
12/13/18 15:12,492
12/13/18 15:12,497
12/13/18 15:12,560
12/13/18 15:12,598
12/13/18 15:12,545
12/13/18 15:12,527
12/13/18 15:12,508
12/13/18 15:12,489
12/13/18 15:12,464
12/13/18 15:12,483
12/13/18 15:12,467
12/13/18 15:12,467
12/13/18 15:12,474
12/13/18 15:12,477
12/13/18 15:12,481
12/13/18 15:12,482
12/13/18 15:12,485
12/13/18 15:12,487
12/13/18 15:12,489
12/13/18 15:12,493
12/13/18 15:12,496
12/13/18 15:12,498
12/13/18 15:12,490
12/13/18 15:12,491
12/13/18 15:12,514
12/13/18 15:12,517
12/13/18 15:12,517
12/13/18 15:12,514
12/13/18 15:12,513
12/13/18 15:12,512
12/13/18 15:12,510
12/13/18 15:12,494
12/13/18 15:12,497
12/13/18 15:12,503
12/13/18 15:12,511
12/13/18 15:12,508
12/13/18 15:12,509
12/13/18 15:12,509
12/13/18 15:12,511
12/13/18 15:12,485
12/13/18 15:12,514
12/13/18 15:12,525
12/13/18 15:12,522
12/13/18 15:12,518
12/13/18 15:12,518
12/13/18 15:12,512
12/13/18 15:12,506
12/13/18 15:12,506
12/13/18 15:12,500
12/13/18 15:12,465
12/13/18 15:12,494
12/13/18 15:12,511
12/13/18 15:12,512
12/13/18 15:12,512
12/13/18 15:12,509
12/13/18 15:12,503
12/13/18 15:12,611
12/13/18 15:12,561
12/13/18 15:12,533
12/13/18 15:12,517
12/13/18 15:12,494
12/13/18 15:12,459
12/13/18 15:12,485
12/13/18 15:12,478
12/13/18 15:12,464
12/13/18 15:12,471
12/13/18 15:12,476
12/13/18 15:12,479
12/13/18 15:12,479
12/13/18 15:12,483
12/13/18 15:12,483
12/13/18 15:12,487
12/13/18 15:12,489
12/13/18 15:12,466
12/13/18 15:12,482
12/13/18 15:12,492
12/13/18 15:12,506
12/13/18 15:12,510
12/13/18 15:12,517
12/13/18 15:12,519
12/13/18 15:12,518
12/13/18 15:12,517
12/13/18 15:12,514
12/13/18 15:12,513
12/13/18 15:12,513
12/13/18 15:12,515
12/13/18 15:12,512
12/13/18 15:12,488
12/13/18 15:12,501
12/13/18 15:12,515
12/13/18 15:12,495
12/13/18 15:12,501
12/13/18 15:12,509
12/13/18 15:12,515
12/13/18 15:12,515
12/13/18 15:12,514
12/13/18 15:12,494
12/13/18 15:12,511
12/13/18 15:12,521
12/13/18 15:12,520
12/13/18 15:12,516
12/13/18 15:12,509
12/13/18 15:12,499
12/13/18 15:12,484
12/13/18 15:12,493
12/13/18 15:12,496
12/13/18 15:12,507
12/13/18 15:12,511
12/13/18 15:12,526
12/13/18 15:12,538
12/13/18 15:12,574
12/13/18 15:12,548
12/13/18 15:12,533
12/13/18 15:12,507
12/13/18 15:12,495
12/13/18 15:12,484
12/13/18 15:12,455
12/13/18 15:12,445
12/13/18 15:12,469
12/13/18 15:12,479
12/13/18 15:12,481
12/13/18 15:12,483
12/13/18 15:12,486
12/13/18 15:12,484
12/13/18 15:12,486
12/13/18 15:12,442
12/13/18 15:12,471
12/13/18 15:12,498
12/13/18 15:12,509
12/13/18 15:12,514
12/13/18 15:12,516
12/13/18 15:12,516
12/13/18 15:12,513
12/13/18 15:12,481
12/13/18 15:12,485
12/13/18 15:12,514
12/13/18 15:12,525
12/13/18 15:12,526
12/13/18 15:12,526
12/13/18 15:12,522
12/13/18 15:12,517
12/13/18 15:12,515
12/13/18 15:12,501
12/13/18 15:12,466
12/13/18 15:12,502
12/13/18 15:12,516
12/13/18 15:12,521
12/13/18 15:12,524
12/13/18 15:12,521
12/13/18 15:12,519
12/13/18 15:12,517
12/13/18 15:12,514
12/13/18 15:12,507
12/13/18 15:12,491
12/13/18 15:12,498
12/13/18 15:12,511
12/13/18 15:12,514
12/13/18 15:12,511
12/13/18 15:12,506
12/13/18 15:12,504
12/13/18 15:12,502
12/13/18 15:12,478
12/13/18 15:12,586
12/13/18 15:12,516
12/13/18 15:12,523
12/13/18 15:12,520
12/13/18 15:12,510
12/13/18 15:12,467
12/13/18 15:12,483
12/13/18 15:12,473
12/13/18 15:12,473
12/13/18 15:12,479
12/13/18 15:12,484
12/13/18 15:12,483
12/13/18 15:12,482
12/13/18 15:12,483
12/13/18 15:12,484
12/13/18 15:12,470
12/13/18 15:12,496
12/13/18 15:12,505
12/13/18 15:12,505
12/13/18 15:12,507
12/13/18 15:12,506
12/13/18 15:12,504
12/13/18 15:12,487
12/13/18 15:12,491
12/13/18 15:12,507
12/13/18 15:12,511
12/13/18 15:12,511
12/13/18 15:12,487
12/13/18 15:12,516
12/13/18 15:12,513
12/13/18 15:12,504
12/13/18 15:21,514
12/13/18 15:21,515
12/13/18 15:21,518
12/13/18 15:21,499
12/13/18 15:21,494
12/13/18 15:21,481
12/13/18 15:21,515
12/13/18 15:21,522
12/13/18 15:21,525
12/13/18 15:21,519
12/13/18 15:21,517
12/13/18 15:21,516
12/13/18 15:21,509
12/13/18 15:21,507
12/13/18 15:21,504
12/13/18 15:21,476
12/13/18 15:21,502
12/13/18 15:21,509
12/13/18 15:21,491
12/13/18 15:21,498
12/13/18 15:21,501
12/13/18 15:21,504
12/13/18 15:21,488
12/13/18 15:21,513
12/13/18 15:21,517
12/13/18 15:21,560
12/13/18 15:21,619
12/13/18 15:21,541
12/13/18 15:21,514
12/13/18 15:21,464
12/13/18 15:21,485
12/13/18 15:21,497
12/13/18 15:21,488
12/13/18 15:21,488
12/13/18 15:21,485
12/13/18 15:21,479
12/13/18 15:21,480
12/13/18 15:21,478
12/13/18 15:21,480
12/13/18 15:21,477
12/13/18 15:21,461
12/13/18 15:21,452
12/13/18 15:21,493
12/13/18 15:21,508
12/13/18 15:21,509
12/13/18 15:21,513
12/13/18 15:21,515
12/13/18 15:21,511
12/13/18 15:21,510
12/13/18 15:21,509
12/13/18 15:21,511
12/13/18 15:21,509
12/13/18 15:21,509
12/13/18 15:21,512
12/13/18 15:21,507
12/13/18 15:21,468
12/13/18 15:21,501
12/13/18 15:21,517
12/13/18 15:21,521
12/13/18 15:21,519
12/13/18 15:21,518
12/13/18 15:21,516
12/13/18 15:21,510
12/13/18 15:21,510
12/13/18 15:21,509
12/13/18 15:21,484
12/13/18 15:21,514
12/13/18 15:21,521
12/13/18 15:21,519
12/13/18 15:21,514
12/13/18 15:21,506
12/13/18 15:21,488
12/13/18 15:21,488
12/13/18 15:21,471
12/13/18 15:21,500
12/13/18 15:21,518
12/13/18 15:21,515
12/13/18 15:21,515
12/13/18 15:21,510
12/13/18 15:21,506
12/13/18 15:21,505
12/13/18 15:21,490
12/13/18 15:21,586
12/13/18 15:21,578
12/13/18 15:21,529
12/13/18 15:21,495
12/13/18 15:21,466
12/13/18 15:21,485
12/13/18 15:21,496
12/13/18 15:21,492
12/13/18 15:21,489
12/13/18 15:21,485
12/13/18 15:21,480
12/13/18 15:21,480
12/13/18 15:21,475
12/13/18 15:21,478
12/13/18 15:21,478
12/13/18 15:21,482
12/13/18 15:21,486
12/13/18 15:21,491
12/13/18 15:21,494
12/13/18 15:21,496
12/13/18 15:21,499
12/13/18 15:21,501
12/13/18 15:21,503
12/13/18 15:21,494
12/13/18 15:21,484
12/13/18 15:21,488
12/13/18 15:21,521
12/13/18 15:21,527
12/13/18 15:21,526
12/13/18 15:21,524
12/13/18 15:21,522
12/13/18 15:21,518
12/13/18 15:21,509
12/13/18 15:21,473
12/13/18 15:21,502
12/13/18 15:21,508
12/13/18 15:21,493
12/13/18 15:21,476
12/13/18 15:21,516
12/13/18 15:21,528
12/13/18 15:21,532
12/13/18 15:21,530
12/13/18 15:21,526
12/13/18 15:21,523
12/13/18 15:21,516
12/13/18 15:21,513
12/13/18 15:21,507
12/13/18 15:21,501
12/13/18 15:21,484
12/13/18 15:21,507
12/13/18 15:21,511
12/13/18 15:21,510
12/13/18 15:21,496
12/13/18 15:21,486
12/13/18 15:21,491
12/13/18 15:21,490
12/13/18 15:21,553
12/13/18 15:21,588
12/13/18 15:21,547
12/13/18 15:21,534
12/13/18 15:21,515
12/13/18 15:21,502
12/13/18 15:21,475
12/13/18 15:21,455
12/13/18 15:21,461
12/13/18 15:21,454
12/13/18 15:21,481
12/13/18 15:21,487
12/13/18 15:21,489
12/13/18 15:21,484
12/13/18 15:21,468
12/13/18 15:21,496
12/13/18 15:21,501
12/13/18 15:21,502
12/13/18 15:21,502
12/13/18 15:21,504
12/13/18 15:21,501
12/13/18 15:21,503
12/13/18 15:21,502
12/13/18 15:21,503
12/13/18 15:21,504
12/13/18 15:21,484
12/13/18 15:21,471
12/13/18 15:21,507
12/13/18 15:21,522
12/13/18 15:21,526
12/13/18 15:21,523
12/13/18 15:21,519
12/13/18 15:21,516
12/13/18 15:21,511
12/13/18 15:21,509
12/13/18 15:21,505
12/13/18 15:21,506
12/13/18 15:21,508
12/13/18 15:21,506
12/13/18 15:21,509
12/13/18 15:21,507
12/13/18 15:21,505
12/13/18 15:21,499
12/13/18 15:21,494
12/13/18 15:21,514
12/13/18 15:21,514
12/13/18 15:21,495
12/13/18 15:21,504
12/13/18 15:21,506
12/13/18 15:21,507
12/13/18 15:21,507
12/13/18 15:21,507
12/13/18 15:21,507
12/13/18 15:21,505
12/13/18 15:21,480
12/13/18 15:21,495
12/13/18 15:21,523
12/13/18 15:21,617
12/13/18 15:21,546
12/13/18 15:21,538
12/13/18 15:21,518
12/13/18 15:21,498
12/13/18 15:21,483
12/13/18 15:21,482
12/13/18 15:21,480
12/13/18 15:21,445
12/13/18 15:21,463
12/13/18 15:21,481
12/13/18 15:21,488
12/13/18 15:21,490
12/13/18 15:21,487
12/13/18 15:21,491
12/13/18 15:21,492
12/13/18 15:21,492
12/13/18 15:21,490
12/13/18 15:21,478
12/13/18 15:21,483
12/13/18 15:21,498
12/13/18 15:21,509
12/13/18 15:21,516
12/13/18 15:21,514
12/13/18 15:21,518
12/13/18 15:21,517
12/13/18 15:21,515
12/13/18 15:21,514
12/13/18 15:21,513
12/13/18 15:21,513
12/13/18 15:21,491
12/13/18 15:21,508
12/13/18 15:21,519
12/13/18 15:21,496
12/13/18 15:21,497
12/13/18 15:21,508
12/13/18 15:21,510
12/13/18 15:21,513
12/13/18 15:21,511
12/13/18 15:21,490
12/13/18 15:21,510
12/13/18 15:21,520
12/13/18 15:21,499
12/13/18 15:21,505
12/13/18 15:21,510
12/13/18 15:21,509
12/13/18 15:21,507
12/13/18 15:21,485
12/13/18 15:21,511
12/13/18 15:21,519
12/13/18 15:21,517
12/13/18 15:21,512
12/13/18 15:21,511
12/13/18 15:21,505
12/13/18 15:21,502
12/13/18 15:21,505
12/13/18 15:21,564
12/13/18 15:21,576
12/13/18 15:21,517
12/13/18 15:21,491
12/13/18 15:21,510
12/13/18 15:21,505
12/13/18 15:21,499
12/13/18 15:21,483
12/13/18 15:21,478
12/13/18 15:21,478
12/13/18 15:21,460
12/13/18 15:21,447
12/13/18 15:21,474
12/13/18 15:21,491
12/13/18 15:21,495
12/13/18 15:21,497
12/13/18 15:21,498
12/13/18 15:21,501
12/13/18 15:21,502
12/13/18 15:21,501
12/13/18 15:21,499
12/13/18 15:21,504
12/13/18 15:21,506
12/13/18 15:21,504
12/13/18 15:21,490
12/13/18 15:21,512
12/13/18 15:21,518
12/13/18 15:21,497
12/13/18 15:21,502
12/13/18 15:21,511
12/13/18 15:21,506
12/13/18 15:21,503
12/13/18 15:21,522
12/13/18 15:21,523
12/13/18 15:21,522
12/13/18 15:21,514
12/13/18 15:21,513
12/13/18 15:21,494
12/13/18 15:21,463
12/13/18 15:21,494
12/13/18 15:21,517
12/13/18 15:21,521
12/13/18 15:21,522
12/13/18 15:21,520
12/13/18 15:21,515
12/13/18 15:21,506
12/13/18 15:21,487
12/13/18 15:21,509
12/13/18 15:21,516
12/13/18 15:21,514
12/13/18 15:21,507
12/13/18 15:21,504
12/13/18 15:21,500
12/13/18 15:21,499
12/13/18 15:21,501
12/13/18 15:21,497
12/13/18 15:21,479
12/13/18 15:21,453
12/13/18 15:21,583
12/13/18 15:21,594
12/13/18 15:21,540
12/13/18 15:21,533
12/13/18 15:21,508
12/13/18 15:21,495
12/13/18 15:21,488
12/13/18 15:21,486
12/13/18 15:21,481
12/13/18 15:21,475
12/13/18 15:21,460
12/13/18 15:21,437
12/13/18 15:21,471
12/13/18 15:21,488
12/13/18 15:21,491
12/13/18 15:21,497
12/13/18 15:21,496
12/13/18 15:21,498
12/13/18 15:21,498
12/13/18 15:21,500
12/13/18 15:21,500
12/13/18 15:21,483
12/13/18 15:21,510
12/13/18 15:21,505
12/13/18 15:21,501
12/13/18 15:21,509
12/13/18 15:21,515
12/13/18 15:21,514
12/13/18 15:21,518
12/13/18 15:21,515
12/13/18 15:21,507
12/13/18 15:21,502
12/13/18 15:21,521
12/13/18 15:21,522
12/13/18 15:21,512
12/13/18 15:21,494
12/13/18 15:21,502
12/13/18 15:21,506
12/13/18 15:21,509
12/13/18 15:21,510
12/13/18 15:21,513
12/13/18 15:21,511
12/13/18 15:21,509
12/13/18 15:21,511
12/13/18 15:21,509
12/13/18 15:21,505
12/13/18 15:21,505
12/13/18 15:21,502
12/13/18 15:21,490
12/13/18 15:21,494
12/13/18 15:21,511
12/13/18 15:21,513
12/13/18 15:21,509
12/13/18 15:21,486
12/13/18 15:21,470
12/13/18 15:21,506
12/13/18 15:21,565
12/13/18 15:21,630
12/13/18 15:21,543
12/13/18 15:21,495
12/13/18 15:21,507
12/13/18 15:21,504
12/13/18 15:21,497
12/13/18 15:21,493
12/13/18 15:21,488
12/13/18 15:21,486
12/13/18 15:21,480
12/13/18 15:21,478
12/13/18 15:21,475
12/13/18 15:21,458
12/13/18 15:21,433
12/13/18 15:21,476
12/13/18 15:21,493
12/13/18 15:21,500
12/13/18 15:21,506
12/13/18 15:21,508
12/13/18 15:21,506
12/13/18 15:21,500
12/13/18 15:21,487
12/13/18 15:21,492
12/13/18 15:21,507
12/13/18 15:21,516
12/13/18 15:21,520
12/13/18 15:21,521
12/13/18 15:21,519
12/13/18 15:21,519
12/13/18 15:21,517
12/13/18 15:21,518
12/13/18 15:21,512
12/13/18 15:21,490
12/13/18 15:21,504
12/13/18 15:21,491
12/13/18 15:21,500
12/13/18 15:21,510
12/13/18 15:21,513
12/13/18 15:21,515
12/13/18 15:21,515
12/13/18 15:21,512
12/13/18 15:21,511
12/13/18 15:21,511
12/13/18 15:21,511
12/13/18 15:21,507
12/13/18 15:21,492
12/13/18 15:21,494
12/13/18 15:21,510
12/13/18 15:21,514
12/13/18 15:21,510
12/13/18 15:21,509
12/13/18 15:21,504
12/13/18 15:21,499
12/13/18 15:21,501
12/13/18 15:21,488
12/13/18 15:21,464
12/13/18 15:21,541
12/13/18 15:21,621
12/13/18 15:21,550
12/13/18 15:21,532
12/13/18 15:21,511
12/13/18 15:21,502
12/13/18 15:21,493
12/13/18 15:21,486
12/13/18 15:21,480
12/13/18 15:21,476
12/13/18 15:21,473
12/13/18 15:21,472
12/13/18 15:21,472
12/13/18 15:21,450
12/13/18 15:21,470
12/13/18 15:21,472
12/13/18 15:21,485
12/13/18 15:21,496
12/13/18 15:21,500
12/13/18 15:21,503
12/13/18 15:21,506
12/13/18 15:21,505
12/13/18 15:21,482
12/13/18 15:21,505
12/13/18 15:21,502
12/13/18 15:21,512
12/13/18 15:21,517
12/13/18 15:21,520
12/13/18 15:21,521
12/13/18 15:21,521
12/13/18 15:21,518
12/13/18 15:21,491
12/13/18 15:21,508
12/13/18 15:21,520
12/13/18 15:21,521
12/13/18 15:21,516
12/13/18 15:21,509
12/13/18 15:21,509
12/13/18 15:21,506
12/13/18 15:21,490
12/13/18 15:21,491
12/13/18 15:21,499
12/13/18 15:21,508
12/13/18 15:21,509
12/13/18 15:21,512
12/13/18 15:21,510
12/13/18 15:21,485
12/13/18 15:21,495
12/13/18 15:21,496
12/13/18 15:21,509
12/13/18 15:21,511
12/13/18 15:21,515
12/13/18 15:21,514
12/13/18 15:21,510
12/13/18 15:21,507
12/13/18 15:21,506
12/13/18 15:21,475
12/13/18 15:21,579
12/13/18 15:21,604
12/13/18 15:21,545
12/13/18 15:21,526
12/13/18 15:21,504
12/13/18 15:21,474
12/13/18 15:21,449
12/13/18 15:21,479
12/13/18 15:21,490
12/13/18 15:21,490
12/13/18 15:21,486
12/13/18 15:21,482
12/13/18 15:21,481
12/13/18 15:21,479
12/13/18 15:21,481
12/13/18 15:21,460
12/13/18 15:21,490
12/13/18 15:21,500
12/13/18 15:21,502
12/13/18 15:21,502
12/13/18 15:21,504
12/13/18 15:21,504
12/13/18 15:21,505
12/13/18 15:21,503
12/13/18 15:21,504
12/13/18 15:21,504
12/13/18 15:21,507
12/13/18 15:21,507
12/13/18 15:21,492
12/13/18 15:21,502
12/13/18 15:21,521
12/13/18 15:21,521
12/13/18 15:21,507
12/13/18 15:21,496
12/13/18 15:21,497
12/13/18 15:21,492
12/13/18 15:21,516
12/13/18 15:21,521
12/13/18 15:21,519
12/13/18 15:21,518
12/13/18 15:21,517
12/13/18 15:21,513
12/13/18 15:21,510
12/13/18 15:21,507
12/13/18 15:21,497
12/13/18 15:21,486
12/13/18 15:21,471
12/13/18 15:21,503
12/13/18 15:21,514
12/13/18 15:21,516
12/13/18 15:21,515
12/13/18 15:21,511
12/13/18 15:21,511
12/13/18 15:21,506
12/13/18 15:21,504
12/13/18 15:21,477
12/13/18 15:21,542
12/13/18 15:21,571
12/13/18 15:21,539
12/13/18 15:21,533
12/13/18 15:21,515
12/13/18 15:21,499
12/13/18 15:21,493
12/13/18 15:21,460
12/13/18 15:21,461
12/13/18 15:21,470
12/13/18 15:21,479
12/13/18 15:21,484
12/13/18 15:21,483
12/13/18 15:21,488
12/13/18 15:21,485
12/13/18 15:21,488
12/13/18 15:21,456
12/13/18 15:21,469
12/13/18 15:21,497
12/13/18 15:21,508
12/13/18 15:21,512
12/13/18 15:21,513
12/13/18 15:21,516
12/13/18 15:21,487
12/13/18 15:21,482
12/13/18 15:21,513
12/13/18 15:21,524
12/13/18 15:21,523
12/13/18 15:21,524
12/13/18 15:21,521
12/13/18 15:21,519
12/13/18 15:21,520
12/13/18 15:21,513
12/13/18 15:21,510
12/13/18 15:21,509
12/13/18 15:21,503
12/13/18 15:21,491
12/13/18 15:21,510
12/13/18 15:21,496
12/13/18 15:21,504
12/13/18 15:21,510
12/13/18 15:21,514
12/13/18 15:21,514
12/13/18 15:21,513
12/13/18 15:21,497
12/13/18 15:21,503
12/13/18 15:21,503
12/13/18 15:21,496
12/13/18 15:21,505
12/13/18 15:21,509
12/13/18 15:21,509
12/13/18 15:21,510
12/13/18 15:21,505
12/13/18 15:21,506
12/13/18 15:21,506
12/13/18 15:21,504
12/13/18 15:21,562
12/13/18 15:21,606
12/13/18 15:21,535
12/13/18 15:21,525
12/13/18 15:21,484
12/13/18 15:21,462
12/13/18 15:21,483
12/13/18 15:21,489
12/13/18 15:21,488
12/13/18 15:30,518
12/13/18 15:30,517
12/13/18 15:30,516
12/13/18 15:30,510
12/13/18 15:30,508
12/13/18 15:30,508
12/13/18 15:30,505
12/13/18 15:30,506
12/13/18 15:30,504
12/13/18 15:30,506
12/13/18 15:30,505
12/13/18 15:30,468
12/13/18 15:30,484
12/13/18 15:30,508
12/13/18 15:30,517
12/13/18 15:30,518
12/13/18 15:30,516
12/13/18 15:30,510
12/13/18 15:30,477
12/13/18 15:30,492
12/13/18 15:30,506
12/13/18 15:30,515
12/13/18 15:30,516
12/13/18 15:30,517
12/13/18 15:30,514
12/13/18 15:30,491
12/13/18 15:30,590
12/13/18 15:30,576
12/13/18 15:30,531
12/13/18 15:30,484
12/13/18 15:30,476
12/13/18 15:30,489
12/13/18 15:30,494
12/13/18 15:30,491
12/13/18 15:30,489
12/13/18 15:30,483
12/13/18 15:30,480
12/13/18 15:30,474
12/13/18 15:30,457
12/13/18 15:30,487
12/13/18 15:30,491
12/13/18 15:30,493
12/13/18 15:30,494
12/13/18 15:30,482
12/13/18 15:30,479
12/13/18 15:30,487
12/13/18 15:30,498
12/13/18 15:30,480
12/13/18 15:30,512
12/13/18 15:30,520
12/13/18 15:30,522
12/13/18 15:30,521
12/13/18 15:30,520
12/13/18 15:30,515
12/13/18 15:30,515
12/13/18 15:30,509
12/13/18 15:30,509
12/13/18 15:30,509
12/13/18 15:30,506
12/13/18 15:30,506
12/13/18 15:30,504
12/13/18 15:30,503
12/13/18 15:30,504
12/13/18 15:30,480
12/13/18 15:30,504
12/13/18 15:30,498
12/13/18 15:30,506
12/13/18 15:30,511
12/13/18 15:30,515
12/13/18 15:30,517
12/13/18 15:30,514
12/13/18 15:30,494
12/13/18 15:30,480
12/13/18 15:30,496
12/13/18 15:30,511
12/13/18 15:30,516
12/13/18 15:30,517
12/13/18 15:30,485
12/13/18 15:30,481
12/13/18 15:30,506
12/13/18 15:30,516
12/13/18 15:30,520
12/13/18 15:30,511
12/13/18 15:30,594
12/13/18 15:30,591
12/13/18 15:30,538
12/13/18 15:30,522
12/13/18 15:30,500
12/13/18 15:30,488
12/13/18 15:30,486
12/13/18 15:30,479
12/13/18 15:30,477
12/13/18 15:30,472
12/13/18 15:30,454
12/13/18 15:30,478
12/13/18 15:30,473
12/13/18 15:30,469
12/13/18 15:30,478
12/13/18 15:30,486
12/13/18 15:30,491
12/13/18 15:30,482
12/13/18 15:30,490
12/13/18 15:30,510
12/13/18 15:30,514
12/13/18 15:30,513
12/13/18 15:30,513
12/13/18 15:30,513
12/13/18 15:30,509
12/13/18 15:30,494
12/13/18 15:30,473
12/13/18 15:30,492
12/13/18 15:30,520
12/13/18 15:30,525
12/13/18 15:30,523
12/13/18 15:30,523
12/13/18 15:30,518
12/13/18 15:30,515
12/13/18 15:30,511
12/13/18 15:30,508
12/13/18 15:30,508
12/13/18 15:30,508
12/13/18 15:30,504
12/13/18 15:30,503
12/13/18 15:30,506
12/13/18 15:30,505
12/13/18 15:30,509
12/13/18 15:30,483
12/13/18 15:30,484
12/13/18 15:30,501
12/13/18 15:30,511
12/13/18 15:30,514
12/13/18 15:30,514
12/13/18 15:30,511
12/13/18 15:30,509
12/13/18 15:30,507
12/13/18 15:30,506
12/13/18 15:30,506
12/13/18 15:30,504
12/13/18 15:30,483
12/13/18 15:30,512
12/13/18 15:30,606
12/13/18 15:30,537
12/13/18 15:30,527
12/13/18 15:30,516
12/13/18 15:30,507
12/13/18 15:30,496
12/13/18 15:30,490
12/13/18 15:30,479
12/13/18 15:30,457
12/13/18 15:30,460
12/13/18 15:30,471
12/13/18 15:30,482
12/13/18 15:30,487
12/13/18 15:30,487
12/13/18 15:30,490
12/13/18 15:30,491
12/13/18 15:30,471
12/13/18 15:30,489
12/13/18 15:30,488
12/13/18 15:30,490
12/13/18 15:30,503
12/13/18 15:30,510
12/13/18 15:30,513
12/13/18 15:30,516
12/13/18 15:30,514
12/13/18 15:30,488
12/13/18 15:30,518
12/13/18 15:30,501
12/13/18 15:30,509
12/13/18 15:30,515
12/13/18 15:30,520
12/13/18 15:30,518
12/13/18 15:30,516
12/13/18 15:30,514
12/13/18 15:30,513
12/13/18 15:30,501
12/13/18 15:30,496
12/13/18 15:30,516
12/13/18 15:30,520
12/13/18 15:30,517
12/13/18 15:30,514
12/13/18 15:30,511
12/13/18 15:30,509
12/13/18 15:30,508
12/13/18 15:30,503
12/13/18 15:30,482
12/13/18 15:30,469
12/13/18 15:30,501
12/13/18 15:30,516
12/13/18 15:30,517
12/13/18 15:30,515
12/13/18 15:30,513
12/13/18 15:30,509
12/13/18 15:30,506
12/13/18 15:30,474
12/13/18 15:30,475
12/13/18 15:30,501
12/13/18 15:30,549
12/13/18 15:30,630
12/13/18 15:30,548
12/13/18 15:30,536
12/13/18 15:30,510
12/13/18 15:30,497
12/13/18 15:30,492
12/13/18 15:30,485
12/13/18 15:30,480
12/13/18 15:30,475
12/13/18 15:30,460
12/13/18 15:30,440
12/13/18 15:30,470
12/13/18 15:30,485
12/13/18 15:30,491
12/13/18 15:30,494
12/13/18 15:30,492
12/13/18 15:30,496
12/13/18 15:30,498
12/13/18 15:30,498
12/13/18 15:30,498
12/13/18 15:30,473
12/13/18 15:30,484
12/13/18 15:30,502
12/13/18 15:30,516
12/13/18 15:30,520
12/13/18 15:30,520
12/13/18 15:30,519
12/13/18 15:30,517
12/13/18 15:30,517
12/13/18 15:30,515
12/13/18 15:30,516
12/13/18 15:30,514
12/13/18 15:30,511
12/13/18 15:30,507
12/13/18 15:30,493
12/13/18 15:30,494
12/13/18 15:30,512
12/13/18 15:30,518
12/13/18 15:30,513
12/13/18 15:30,508
12/13/18 15:30,490
12/13/18 15:30,498
12/13/18 15:30,506
12/13/18 15:30,510
12/13/18 15:30,512
12/13/18 15:30,509
12/13/18 15:30,507
12/13/18 15:30,483
12/13/18 15:30,502
12/13/18 15:30,504
12/13/18 15:30,496
12/13/18 15:30,504
12/13/18 15:30,507
12/13/18 15:30,507
12/13/18 15:30,492
12/13/18 15:30,514
12/13/18 15:30,554
12/13/18 15:30,633
12/13/18 15:30,545
12/13/18 15:30,532
12/13/18 15:30,507
12/13/18 15:30,492
12/13/18 15:30,479
12/13/18 15:30,477
12/13/18 15:30,462
12/13/18 15:30,457
12/13/18 15:30,447
12/13/18 15:30,480
12/13/18 15:30,491
12/13/18 15:30,493
12/13/18 15:30,493
12/13/18 15:30,492
12/13/18 15:30,492
12/13/18 15:30,493
12/13/18 15:30,494
12/13/18 15:30,496
12/13/18 15:30,497
12/13/18 15:30,500
12/13/18 15:30,503
12/13/18 15:30,504
12/13/18 15:30,506
12/13/18 15:30,503
12/13/18 15:30,483
12/13/18 15:30,499
12/13/18 15:30,510
12/13/18 15:30,520
12/13/18 15:30,523
12/13/18 15:30,520
12/13/18 15:30,518
12/13/18 15:30,514
12/13/18 15:30,492
12/13/18 15:30,486
12/13/18 15:30,504
12/13/18 15:30,515
12/13/18 15:30,518
12/13/18 15:30,518
12/13/18 15:30,518
12/13/18 15:30,515
12/13/18 15:30,511
12/13/18 15:30,512
12/13/18 15:30,512
12/13/18 15:30,507
12/13/18 15:30,507
12/13/18 15:30,503
12/13/18 15:30,504
12/13/18 15:30,505
12/13/18 15:30,501
12/13/18 15:30,478
12/13/18 15:30,485
12/13/18 15:30,496
12/13/18 15:30,507
12/13/18 15:30,509
12/13/18 15:30,512
12/13/18 15:30,484
12/13/18 15:30,589
12/13/18 15:30,569
12/13/18 15:30,521
12/13/18 15:30,509
12/13/18 15:30,507
12/13/18 15:30,497
12/13/18 15:30,493
12/13/18 15:30,470
12/13/18 15:30,466
12/13/18 15:30,472
12/13/18 15:30,475
12/13/18 15:30,477
12/13/18 15:30,477
12/13/18 15:30,472
12/13/18 15:30,467
12/13/18 15:30,472
12/13/18 15:30,491
12/13/18 15:30,501
12/13/18 15:30,507
12/13/18 15:30,508
12/13/18 15:30,509
12/13/18 15:30,511
12/13/18 15:30,512
12/13/18 15:30,510
12/13/18 15:30,510
12/13/18 15:30,508
12/13/18 15:30,492
12/13/18 15:30,502
12/13/18 15:30,502
12/13/18 15:30,514
12/13/18 15:30,518
12/13/18 15:30,518
12/13/18 15:30,519
12/13/18 15:30,501
12/13/18 15:30,505
12/13/18 15:30,520
12/13/18 15:30,517
12/13/18 15:30,516
12/13/18 15:30,516
12/13/18 15:30,513
12/13/18 15:30,509
12/13/18 15:30,506
12/13/18 15:30,506
12/13/18 15:30,465
12/13/18 15:30,486
12/13/18 15:30,509
12/13/18 15:30,518
12/13/18 15:30,515
12/13/18 15:30,516
12/13/18 15:30,514
12/13/18 15:30,506
12/13/18 15:30,506
12/13/18 15:30,483
12/13/18 15:30,495
12/13/18 15:30,510
12/13/18 15:30,513
12/13/18 15:30,489
12/13/18 15:30,571
12/13/18 15:30,561
12/13/18 15:30,522
12/13/18 15:30,523
12/13/18 15:30,506
12/13/18 15:30,488
12/13/18 15:30,484
12/13/18 15:30,457
12/13/18 15:30,482
12/13/18 15:30,488
12/13/18 15:30,485
12/13/18 15:30,484
12/13/18 15:30,482
12/13/18 15:30,482
12/13/18 15:30,481
12/13/18 15:30,484
12/13/18 15:30,484
12/13/18 15:30,471
12/13/18 15:30,478
12/13/18 15:30,465
12/13/18 15:30,500
12/13/18 15:30,518
12/13/18 15:30,519
12/13/18 15:30,520
12/13/18 15:30,516
12/13/18 15:30,516
12/13/18 15:30,515
12/13/18 15:30,513
12/13/18 15:30,514
12/13/18 15:30,510
12/13/18 15:30,511
12/13/18 15:30,486
12/13/18 15:30,512
12/13/18 15:30,501
12/13/18 15:30,502
12/13/18 15:30,507
12/13/18 15:30,513
12/13/18 15:30,514
12/13/18 15:30,514
12/13/18 15:30,512
12/13/18 15:30,510
12/13/18 15:30,481
12/13/18 15:30,496
12/13/18 15:30,511
12/13/18 15:30,519
12/13/18 15:30,519
12/13/18 15:30,518
12/13/18 15:30,514
12/13/18 15:30,510
12/13/18 15:30,508
12/13/18 15:30,507
12/13/18 15:30,492
12/13/18 15:30,473
12/13/18 15:30,495
12/13/18 15:30,506
12/13/18 15:30,511
12/13/18 15:30,515
12/13/18 15:30,515
12/13/18 15:30,573
12/13/18 15:30,607
12/13/18 15:30,518
12/13/18 15:30,519
12/13/18 15:30,509
12/13/18 15:30,501
12/13/18 15:30,494
12/13/18 15:30,477
12/13/18 15:30,460
12/13/18 15:30,443
12/13/18 15:30,467
12/13/18 15:30,485
12/13/18 15:30,490
12/13/18 15:30,490
12/13/18 15:30,489
12/13/18 15:30,490
12/13/18 15:30,491
12/13/18 15:30,491
12/13/18 15:30,495
12/13/18 15:30,497
12/13/18 15:30,497
12/13/18 15:30,498
12/13/18 15:30,500
12/13/18 15:30,473
12/13/18 15:30,493
12/13/18 15:30,511
12/13/18 15:30,519
12/13/18 15:30,522
12/13/18 15:30,520
12/13/18 15:30,520
12/13/18 15:30,517
12/13/18 15:30,517
12/13/18 15:30,514
12/13/18 15:30,509
12/13/18 15:30,509
12/13/18 15:30,501
12/13/18 15:30,466
12/13/18 15:30,500
12/13/18 15:30,515
12/13/18 15:30,522
12/13/18 15:30,520
12/13/18 15:30,516
12/13/18 15:30,517
12/13/18 15:30,513
12/13/18 15:30,509
12/13/18 15:30,472
12/13/18 15:30,492
12/13/18 15:30,509
12/13/18 15:30,514
12/13/18 15:30,515
12/13/18 15:30,514
12/13/18 15:30,509
12/13/18 15:30,509
12/13/18 15:30,505
12/13/18 15:30,504
12/13/18 15:30,504
12/13/18 15:30,499
12/13/18 15:30,486
12/13/18 15:30,563
12/13/18 15:30,620
12/13/18 15:30,539
12/13/18 15:30,523
12/13/18 15:30,491
12/13/18 15:30,466
12/13/18 15:30,449
12/13/18 15:30,484
12/13/18 15:30,492
12/13/18 15:30,491
12/13/18 15:30,489
12/13/18 15:30,485
12/13/18 15:30,485
12/13/18 15:30,484
12/13/18 15:30,484
12/13/18 15:30,486
12/13/18 15:30,487
12/13/18 15:30,452
12/13/18 15:30,476
12/13/18 15:30,500
12/13/18 15:30,507
12/13/18 15:30,511
12/13/18 15:30,515
12/13/18 15:30,513
12/13/18 15:30,510
12/13/18 15:30,510
12/13/18 15:30,515
12/13/18 15:30,513
12/13/18 15:30,485
12/13/18 15:30,483
12/13/18 15:30,514
12/13/18 15:30,522
12/13/18 15:30,522
12/13/18 15:30,520
12/13/18 15:30,518
12/13/18 15:30,514
12/13/18 15:30,511
12/13/18 15:30,512
12/13/18 15:30,506
12/13/18 15:30,488
12/13/18 15:30,479
12/13/18 15:30,492
12/13/18 15:30,517
12/13/18 15:30,523
12/13/18 15:30,521
12/13/18 15:30,516
12/13/18 15:30,512
12/13/18 15:30,509
12/13/18 15:30,509
12/13/18 15:30,492
12/13/18 15:30,487
12/13/18 15:30,496
12/13/18 15:30,480
12/13/18 15:30,502
12/13/18 15:30,516
12/13/18 15:30,517
12/13/18 15:30,518
12/13/18 15:30,563
12/13/18 15:30,616
12/13/18 15:30,522
12/13/18 15:30,505
12/13/18 15:30,510
12/13/18 15:30,504
12/13/18 15:30,495
12/13/18 15:30,487
12/13/18 15:30,481
12/13/18 15:30,477
12/13/18 15:30,470
12/13/18 15:30,429
12/13/18 15:30,465
12/13/18 15:30,484
12/13/18 15:30,492
12/13/18 15:30,495
12/13/18 15:30,497
12/13/18 15:30,497
12/13/18 15:30,497
12/13/18 15:30,499
12/13/18 15:30,479
12/13/18 15:30,469
12/13/18 15:30,505
12/13/18 15:30,516
12/13/18 15:30,522
12/13/18 15:30,518
12/13/18 15:30,518
12/13/18 15:30,518
12/13/18 15:30,518
12/13/18 15:30,517
12/13/18 15:30,512
12/13/18 15:30,511
12/13/18 15:30,511
12/13/18 15:30,507
12/13/18 15:30,481
12/13/18 15:30,501
12/13/18 15:30,496
12/13/18 15:30,501
12/13/18 15:30,507
12/13/18 15:30,513
12/13/18 15:30,514
12/13/18 15:30,516
12/13/18 15:30,514
12/13/18 15:30,513
12/13/18 15:30,513
12/13/18 15:30,510
12/13/18 15:30,502
12/13/18 15:30,486
12/13/18 15:30,510
12/13/18 15:30,516
12/13/18 15:30,513
12/13/18 15:30,507
12/13/18 15:30,506
12/13/18 15:30,502
12/13/18 15:30,491
12/13/18 15:30,483
12/13/18 15:30,483
12/13/18 15:30,557
12/13/18 15:39,507
12/13/18 15:39,508
12/13/18 15:39,501
12/13/18 15:39,487
12/13/18 15:39,499
12/13/18 15:39,515
12/13/18 15:39,518
12/13/18 15:39,516
12/13/18 15:39,514
12/13/18 15:39,514
12/13/18 15:39,509
12/13/18 15:39,504
12/13/18 15:39,488
12/13/18 15:39,501
12/13/18 15:39,510
12/13/18 15:39,492
12/13/18 15:39,494
12/13/18 15:39,500
12/13/18 15:39,504
12/13/18 15:39,537
12/13/18 15:39,601
12/13/18 15:39,554
12/13/18 15:39,529
12/13/18 15:39,515
12/13/18 15:39,479
12/13/18 15:39,488
12/13/18 15:39,465
12/13/18 15:39,473
12/13/18 15:39,478
12/13/18 15:39,481
12/13/18 15:39,480
12/13/18 15:39,467
12/13/18 15:39,477
12/13/18 15:39,488
12/13/18 15:39,476
12/13/18 15:39,475
12/13/18 15:39,488
12/13/18 15:39,494
12/13/18 15:39,500
12/13/18 15:39,506
12/13/18 15:39,505
12/13/18 15:39,487
12/13/18 15:39,509
12/13/18 15:39,516
12/13/18 15:39,496
12/13/18 15:39,501
12/13/18 15:39,512
12/13/18 15:39,516
12/13/18 15:39,517
12/13/18 15:39,521
12/13/18 15:39,517
12/13/18 15:39,507
12/13/18 15:39,508
12/13/18 15:39,516
12/13/18 15:39,515
12/13/18 15:39,514
12/13/18 15:39,511
12/13/18 15:39,510
12/13/18 15:39,506
12/13/18 15:39,507
12/13/18 15:39,506
12/13/18 15:39,485
12/13/18 15:39,485
12/13/18 15:39,507
12/13/18 15:39,516
12/13/18 15:39,514
12/13/18 15:39,513
12/13/18 15:39,511
12/13/18 15:39,507
12/13/18 15:39,506
12/13/18 15:39,504
12/13/18 15:39,498
12/13/18 15:39,490
12/13/18 15:39,505
12/13/18 15:39,511
12/13/18 15:39,507
12/13/18 15:39,557
12/13/18 15:39,592
12/13/18 15:39,532
12/13/18 15:39,526
12/13/18 15:39,511
12/13/18 15:39,500
12/13/18 15:39,491
12/13/18 15:39,483
12/13/18 15:39,479
12/13/18 15:39,473
12/13/18 15:39,453
12/13/18 15:39,454
12/13/18 15:39,471
12/13/18 15:39,481
12/13/18 15:39,487
12/13/18 15:39,491
12/13/18 15:39,491
12/13/18 15:39,493
12/13/18 15:39,497
12/13/18 15:39,475
12/13/18 15:39,484
12/13/18 15:39,502
12/13/18 15:39,513
12/13/18 15:39,516
12/13/18 15:39,516
12/13/18 15:39,520
12/13/18 15:39,518
12/13/18 15:39,516
12/13/18 15:39,505
12/13/18 15:39,508
12/13/18 15:39,517
12/13/18 15:39,499
12/13/18 15:39,506
12/13/18 15:39,513
12/13/18 15:39,514
12/13/18 15:39,514
12/13/18 15:39,511
12/13/18 15:39,498
12/13/18 15:39,503
12/13/18 15:39,516
12/13/18 15:39,519
12/13/18 15:39,497
12/13/18 15:39,503
12/13/18 15:39,513
12/13/18 15:39,513
12/13/18 15:39,514
12/13/18 15:39,509
12/13/18 15:39,495
12/13/18 15:39,509
12/13/18 15:39,514
12/13/18 15:39,511
12/13/18 15:39,489
12/13/18 15:39,493
12/13/18 15:39,501
12/13/18 15:39,514
12/13/18 15:39,573
12/13/18 15:39,566
12/13/18 15:39,545
12/13/18 15:39,531
12/13/18 15:39,506
12/13/18 15:39,494
12/13/18 15:39,476
12/13/18 15:39,464
12/13/18 15:39,454
12/13/18 15:39,471
12/13/18 15:39,483
12/13/18 15:39,483
12/13/18 15:39,484
12/13/18 15:39,485
12/13/18 15:39,484
12/13/18 15:39,486
12/13/18 15:39,487
12/13/18 15:39,490
12/13/18 15:39,493
12/13/18 15:39,494
12/13/18 15:39,491
12/13/18 15:39,491
12/13/18 15:39,511
12/13/18 15:39,513
12/13/18 15:39,496
12/13/18 15:39,499
12/13/18 15:39,508
12/13/18 15:39,494
12/13/18 15:39,516
12/13/18 15:39,524
12/13/18 15:39,528
12/13/18 15:39,521
12/13/18 15:39,518
12/13/18 15:39,513
12/13/18 15:39,506
12/13/18 15:39,491
12/13/18 15:39,495
12/13/18 15:39,506
12/13/18 15:39,509
12/13/18 15:39,511
12/13/18 15:39,514
12/13/18 15:39,511
12/13/18 15:39,511
12/13/18 15:39,510
12/13/18 15:39,507
12/13/18 15:39,489
12/13/18 15:39,507
12/13/18 15:39,514
12/13/18 15:39,512
12/13/18 15:39,509
12/13/18 15:39,506
12/13/18 15:39,501
12/13/18 15:39,504
12/13/18 15:39,501
12/13/18 15:39,512
12/13/18 15:39,563
12/13/18 15:39,554
12/13/18 15:39,543
12/13/18 15:39,526
12/13/18 15:39,505
12/13/18 15:39,494
12/13/18 15:39,484
12/13/18 15:39,480
12/13/18 15:39,476
12/13/18 15:39,470
12/13/18 15:39,453
12/13/18 15:39,447
12/13/18 15:39,473
12/13/18 15:39,487
12/13/18 15:39,492
12/13/18 15:39,495
12/13/18 15:39,495
12/13/18 15:39,497
12/13/18 15:39,484
12/13/18 15:39,484
12/13/18 15:39,496
12/13/18 15:39,503
12/13/18 15:39,509
12/13/18 15:39,513
12/13/18 15:39,496
12/13/18 15:39,516
12/13/18 15:39,525
12/13/18 15:39,524
12/13/18 15:39,499
12/13/18 15:39,505
12/13/18 15:39,513
12/13/18 15:39,514
12/13/18 15:39,517
12/13/18 15:39,513
12/13/18 15:39,513
12/13/18 15:39,495
12/13/18 15:39,513
12/13/18 15:39,517
12/13/18 15:39,516
12/13/18 15:39,515
12/13/18 15:39,511
12/13/18 15:39,509
12/13/18 15:39,508
12/13/18 15:39,486
12/13/18 15:39,490
12/13/18 15:39,502
12/13/18 15:39,504
12/13/18 15:39,488
12/13/18 15:39,504
12/13/18 15:39,515
12/13/18 15:39,515
12/13/18 15:39,508
12/13/18 15:39,507
12/13/18 15:39,505
12/13/18 15:39,484
12/13/18 15:39,464
12/13/18 15:39,574
12/13/18 15:39,574
12/13/18 15:39,545
12/13/18 15:39,531
12/13/18 15:39,509
12/13/18 15:39,495
12/13/18 15:39,488
12/13/18 15:39,480
12/13/18 15:39,475
12/13/18 15:39,471
12/13/18 15:39,469
12/13/18 15:39,470
12/13/18 15:39,471
12/13/18 15:39,474
12/13/18 15:39,477
12/13/18 15:39,478
12/13/18 15:39,484
12/13/18 15:39,486
12/13/18 15:39,491
12/13/18 15:39,465
12/13/18 15:39,487
12/13/18 15:39,506
12/13/18 15:39,513
12/13/18 15:39,520
12/13/18 15:39,521
12/13/18 15:39,517
12/13/18 15:39,499
12/13/18 15:39,514
12/13/18 15:39,523
12/13/18 15:39,513
12/13/18 15:39,504
12/13/18 15:39,510
12/13/18 15:39,513
12/13/18 15:39,514
12/13/18 15:39,514
12/13/18 15:39,509
12/13/18 15:39,509
12/13/18 15:39,502
12/13/18 15:39,503
12/13/18 15:39,515
12/13/18 15:39,517
12/13/18 15:39,517
12/13/18 15:39,515
12/13/18 15:39,511
12/13/18 15:39,507
12/13/18 15:39,504
12/13/18 15:39,503
12/13/18 15:39,465
12/13/18 15:39,483
12/13/18 15:39,502
12/13/18 15:39,509
12/13/18 15:39,513
12/13/18 15:39,510
12/13/18 15:39,511
12/13/18 15:39,509
12/13/18 15:39,503
12/13/18 15:39,529
12/13/18 15:39,605
12/13/18 15:39,534
12/13/18 15:39,526
12/13/18 15:39,508
12/13/18 15:39,478
12/13/18 15:39,477
12/13/18 15:39,470
12/13/18 15:39,482
12/13/18 15:39,486
12/13/18 15:39,486
12/13/18 15:39,483
12/13/18 15:39,485
12/13/18 15:39,485
12/13/18 15:39,482
12/13/18 15:39,487
12/13/18 15:39,489
